unix_time, readable_time, sample_index, sequence, D0, D1, D2, D3, A1_(EMG), A2_(EDA), A3_(ECG), A4, A5, A6
1769151046.164024,2026-01-23 15:50:46.164,0,0,1,1,0,0,512,1020,526,2,0,0
1769151046.165024,2026-01-23 15:50:46.165,1,1,1,1,0,0,516,1020,525,2,0,0
1769151046.166024,2026-01-23 15:50:46.166,2,2,1,1,0,0,515,1020,524,2,0,0
1769151046.167024,2026-01-23 15:50:46.167,3,3,1,1,0,0,512,1020,524,2,0,0
1769151046.168024,2026-01-23 15:50:46.168,4,4,1,1,0,0,512,1020,525,2,0,0
1769151046.169024,2026-01-23 15:50:46.169,5,5,1,1,0,0,511,1020,526,2,0,0
1769151046.170024,2026-01-23 15:50:46.170,6,6,1,1,0,0,512,1020,526,2,0,0
1769151046.171024,2026-01-23 15:50:46.171,7,7,1,1,0,0,510,1020,527,2,0,0
1769151046.172024,2026-01-23 15:50:46.172,8,8,1,1,0,0,512,1020,527,2,0,0
1769151046.173024,2026-01-23 15:50:46.173,9,9,1,1,0,0,514,1020,527,2,0,0
1769151046.174024,2026-01-23 15:50:46.174,10,10,1,1,0,0,512,1020,526,2,0,0
1769151046.175024,2026-01-23 15:50:46.175,11,11,1,1,0,0,511,1020,526,2,0,0
1769151046.176024,2026-01-23 15:50:46.176,12,12,1,1,0,0,510,1020,525,2,0,0
1769151046.177024,2026-01-23 15:50:46.177,13,13,1,1,0,0,511,1020,524,2,0,0
1769151046.178024,2026-01-23 15:50:46.178,14,14,1,1,0,0,511,1020,524,2,0,0
1769151046.179024,2026-01-23 15:50:46.179,15,15,1,1,0,0,512,1020,524,2,0,0
1769151046.180024,2026-01-23 15:50:46.180,16,0,1,1,0,0,508,1020,523,2,0,0
1769151046.181024,2026-01-23 15:50:46.181,17,1,1,1,0,0,511,1020,522,2,0,0
1769151046.182024,2026-01-23 15:50:46.182,18,2,1,1,0,0,512,1020,523,2,0,0
1769151046.183024,2026-01-23 15:50:46.183,19,3,1,1,0,0,512,1020,522,2,0,0
1769151046.184024,2026-01-23 15:50:46.184,20,4,1,1,0,0,512,1020,523,2,0,0
1769151046.185024,2026-01-23 15:50:46.185,21,5,1,1,0,0,515,1020,523,2,0,0
1769151046.186024,2026-01-23 15:50:46.186,22,6,1,1,0,0,511,1020,524,2,0,0
1769151046.187024,2026-01-23 15:50:46.187,23,7,1,1,0,0,512,1020,524,2,0,0
1769151046.188024,2026-01-23 15:50:46.188,24,8,1,1,0,0,511,1020,524,2,0,0
1769151046.189024,2026-01-23 15:50:46.189,25,9,1,1,0,0,512,1020,525,2,0,0
1769151046.190024,2026-01-23 15:50:46.190,26,10,1,1,0,0,511,1020,525,2,0,0
1769151046.191024,2026-01-23 15:50:46.191,27,11,1,1,0,0,511,1020,524,2,0,0
1769151046.192024,2026-01-23 15:50:46.192,28,12,1,1,0,0,512,1020,524,2,0,0
1769151046.193024,2026-01-23 15:50:46.193,29,13,1,1,0,0,512,1020,524,2,0,0
1769151046.194024,2026-01-23 15:50:46.194,30,14,1,1,0,0,510,1020,523,2,0,0
1769151046.195024,2026-01-23 15:50:46.195,31,15,1,1,0,0,509,1020,521,2,0,0
1769151046.196024,2026-01-23 15:50:46.196,32,0,1,1,0,0,508,1020,521,2,0,0
1769151046.197024,2026-01-23 15:50:46.197,33,1,1,1,0,0,512,1020,520,2,0,0
1769151046.198024,2026-01-23 15:50:46.198,34,2,1,1,0,0,512,1020,519,2,0,0
1769151046.199024,2026-01-23 15:50:46.199,35,3,1,1,0,0,513,1020,519,2,0,0
1769151046.200024,2026-01-23 15:50:46.200,36,4,1,1,0,0,513,1020,519,2,0,0
1769151046.201024,2026-01-23 15:50:46.201,37,5,1,1,0,0,510,1020,519,2,0,0
1769151046.202024,2026-01-23 15:50:46.202,38,6,1,1,0,0,511,1020,520,2,0,0
1769151046.203024,2026-01-23 15:50:46.203,39,7,1,1,0,0,510,1020,522,2,0,0
1769151046.204024,2026-01-23 15:50:46.204,40,8,1,1,0,0,512,1020,522,2,0,0
1769151046.205024,2026-01-23 15:50:46.205,41,9,1,1,0,0,512,1020,523,2,0,0
1769151046.206024,2026-01-23 15:50:46.206,42,10,1,1,0,0,511,1020,523,2,0,0
1769151046.207024,2026-01-23 15:50:46.207,43,11,1,1,0,0,511,1020,523,2,0,0
1769151046.208024,2026-01-23 15:50:46.208,44,12,1,1,0,0,512,1020,523,2,0,0
1769151046.209024,2026-01-23 15:50:46.209,45,13,1,1,0,0,511,1020,521,2,0,0
1769151046.210024,2026-01-23 15:50:46.210,46,14,1,1,0,0,511,1020,521,2,0,0
1769151046.211024,2026-01-23 15:50:46.211,47,15,1,1,0,0,511,1020,519,2,0,0
1769151046.212024,2026-01-23 15:50:46.212,48,0,1,1,0,0,512,1020,518,2,0,0
1769151046.213024,2026-01-23 15:50:46.213,49,1,1,1,0,0,513,1020,517,2,0,0
1769151046.214024,2026-01-23 15:50:46.214,50,2,1,1,0,0,511,1020,516,2,0,0
1769151046.215024,2026-01-23 15:50:46.215,51,3,1,1,0,0,511,1020,516,2,0,0
1769151046.216024,2026-01-23 15:50:46.216,52,4,1,1,0,0,512,1020,516,2,0,0
1769151046.217024,2026-01-23 15:50:46.217,53,5,1,1,0,0,511,1020,516,2,0,0
1769151046.218024,2026-01-23 15:50:46.218,54,6,1,1,0,0,512,1020,517,2,0,0
1769151046.219024,2026-01-23 15:50:46.219,55,7,1,1,0,0,513,1020,518,2,0,0
1769151046.220024,2026-01-23 15:50:46.220,56,8,1,1,0,0,512,1020,518,2,0,0
1769151046.221024,2026-01-23 15:50:46.221,57,9,1,1,0,0,511,1020,519,2,0,0
1769151046.222024,2026-01-23 15:50:46.222,58,10,1,1,0,0,512,1020,519,2,0,0
1769151046.223024,2026-01-23 15:50:46.223,59,11,1,1,0,0,510,1020,520,2,0,0
1769151046.224024,2026-01-23 15:50:46.224,60,12,1,1,0,0,510,1020,519,2,0,0
1769151046.225024,2026-01-23 15:50:46.225,61,13,1,1,0,0,510,1020,519,2,0,0
1769151046.226024,2026-01-23 15:50:46.226,62,14,1,1,0,0,511,1020,519,2,0,0
1769151046.227024,2026-01-23 15:50:46.227,63,15,1,1,0,0,511,1020,518,2,0,0
1769151046.228024,2026-01-23 15:50:46.228,64,0,1,1,0,0,511,1020,517,2,0,0
1769151046.229024,2026-01-23 15:50:46.229,65,1,1,1,0,0,511,1020,516,2,0,0
1769151046.230024,2026-01-23 15:50:46.230,66,2,1,1,0,0,511,1020,516,2,0,0
1769151046.231024,2026-01-23 15:50:46.231,67,3,1,1,0,0,512,1020,515,2,0,0
1769151046.232024,2026-01-23 15:50:46.232,68,4,1,1,0,0,512,1020,515,2,0,0
1769151046.233024,2026-01-23 15:50:46.233,69,5,1,1,0,0,513,1020,515,2,0,0
1769151046.234024,2026-01-23 15:50:46.234,70,6,1,1,0,0,514,1020,515,2,0,0
1769151046.235024,2026-01-23 15:50:46.235,71,7,1,1,0,0,513,1020,516,2,0,0
1769151046.236024,2026-01-23 15:50:46.236,72,8,1,1,0,0,512,1020,517,2,0,0
1769151046.237024,2026-01-23 15:50:46.237,73,9,1,1,0,0,512,1020,518,2,0,0
1769151046.238024,2026-01-23 15:50:46.238,74,10,1,1,0,0,511,1020,519,2,0,0
1769151046.239024,2026-01-23 15:50:46.239,75,11,1,1,0,0,511,1020,519,2,0,0
1769151046.240024,2026-01-23 15:50:46.240,76,12,1,1,0,0,511,1020,519,2,0,0
1769151046.241024,2026-01-23 15:50:46.241,77,13,1,1,0,0,512,1020,519,2,0,0
1769151046.242024,2026-01-23 15:50:46.242,78,14,1,1,0,0,512,1020,519,2,0,0
1769151046.243024,2026-01-23 15:50:46.243,79,15,1,1,0,0,510,1020,518,2,0,0
1769151046.244024,2026-01-23 15:50:46.244,80,0,1,1,0,0,509,1020,517,2,0,0
1769151046.245024,2026-01-23 15:50:46.245,81,1,1,1,0,0,510,1020,517,2,0,0
1769151046.246024,2026-01-23 15:50:46.246,82,2,1,1,0,0,512,1020,516,2,0,0
1769151046.247024,2026-01-23 15:50:46.247,83,3,1,1,0,0,510,1020,515,2,0,0
1769151046.248024,2026-01-23 15:50:46.248,84,4,1,1,0,0,511,1020,514,2,0,0
1769151046.249024,2026-01-23 15:50:46.249,85,5,1,1,0,0,512,1020,514,2,0,0
1769151046.250024,2026-01-23 15:50:46.250,86,6,1,1,0,0,511,1020,515,2,0,0
1769151046.251024,2026-01-23 15:50:46.251,87,7,1,1,0,0,513,1020,515,2,0,0
1769151046.252024,2026-01-23 15:50:46.252,88,8,1,1,0,0,512,1020,515,2,0,0
1769151046.253024,2026-01-23 15:50:46.253,89,9,1,1,0,0,513,1020,515,2,0,0
1769151046.254024,2026-01-23 15:50:46.254,90,10,1,1,0,0,513,1020,516,2,0,0
1769151046.255024,2026-01-23 15:50:46.255,91,11,1,1,0,0,510,1020,518,2,0,0
1769151046.256024,2026-01-23 15:50:46.256,92,12,1,1,0,0,512,1020,518,2,0,0
1769151046.257024,2026-01-23 15:50:46.257,93,13,1,1,0,0,512,1020,519,2,0,0
1769151046.258024,2026-01-23 15:50:46.258,94,14,1,1,0,0,510,1020,519,2,0,0
1769151046.259024,2026-01-23 15:50:46.259,95,15,1,1,0,0,509,1020,519,2,0,0
1769151046.260024,2026-01-23 15:50:46.260,96,0,1,1,0,0,511,1020,519,2,0,0
1769151046.261024,2026-01-23 15:50:46.261,97,1,1,1,0,0,510,1020,518,2,0,0
1769151046.262024,2026-01-23 15:50:46.262,98,2,1,1,0,0,512,1020,517,2,0,0
1769151046.263024,2026-01-23 15:50:46.263,99,3,1,1,0,0,512,1020,516,2,0,0
1769151046.264024,2026-01-23 15:50:46.264,100,4,1,1,0,0,511,1020,516,2,0,0
1769151046.265024,2026-01-23 15:50:46.265,101,5,1,1,0,0,512,1020,516,2,0,0
1769151046.266024,2026-01-23 15:50:46.266,102,6,1,1,0,0,510,1020,516,2,0,0
1769151046.267024,2026-01-23 15:50:46.267,103,7,1,1,0,0,511,1020,516,2,0,0
1769151046.268024,2026-01-23 15:50:46.268,104,8,1,1,0,0,512,1020,517,2,0,0
1769151046.269024,2026-01-23 15:50:46.269,105,9,1,1,0,0,512,1020,517,2,0,0
1769151046.270024,2026-01-23 15:50:46.270,106,10,1,1,0,0,512,1020,518,2,0,0
1769151046.271024,2026-01-23 15:50:46.271,107,11,1,1,0,0,513,1020,519,2,0,0
1769151046.272024,2026-01-23 15:50:46.272,108,12,1,1,0,0,513,1020,519,2,0,0
1769151046.273024,2026-01-23 15:50:46.273,109,13,1,1,0,0,511,1020,519,2,0,0
1769151046.274024,2026-01-23 15:50:46.274,110,14,1,1,0,0,507,1020,519,2,0,0
1769151046.275024,2026-01-23 15:50:46.275,111,15,1,1,0,0,510,1020,519,2,0,0
1769151046.276024,2026-01-23 15:50:46.276,112,0,1,1,0,0,509,1020,517,2,0,0
1769151046.277024,2026-01-23 15:50:46.277,113,1,1,1,0,0,512,1020,516,2,0,0
1769151046.278024,2026-01-23 15:50:46.278,114,2,1,1,0,0,513,1020,516,2,0,0
1769151046.279024,2026-01-23 15:50:46.279,115,3,1,1,0,0,512,1020,515,2,0,0
1769151046.280024,2026-01-23 15:50:46.280,116,4,1,1,0,0,510,1020,515,2,0,0
1769151046.281024,2026-01-23 15:50:46.281,117,5,1,1,0,0,507,1020,515,2,0,0
1769151046.282024,2026-01-23 15:50:46.282,118,6,1,1,0,0,509,1020,515,2,0,0
1769151046.283024,2026-01-23 15:50:46.283,119,7,1,1,0,0,513,1020,515,2,0,0
1769151046.284024,2026-01-23 15:50:46.284,120,8,1,1,0,0,513,1020,516,2,0,0
1769151046.285024,2026-01-23 15:50:46.285,121,9,1,1,0,0,511,1020,517,2,0,0
1769151046.286024,2026-01-23 15:50:46.286,122,10,1,1,0,0,512,1020,517,2,0,0
1769151046.287024,2026-01-23 15:50:46.287,123,11,1,1,0,0,512,1020,519,2,0,0
1769151046.288024,2026-01-23 15:50:46.288,124,12,1,1,0,0,511,1020,519,2,0,0
1769151046.289024,2026-01-23 15:50:46.289,125,13,1,1,0,0,511,1020,519,2,0,0
1769151046.290024,2026-01-23 15:50:46.290,126,14,1,1,0,0,511,1020,519,2,0,0
1769151046.291024,2026-01-23 15:50:46.291,127,15,1,1,0,0,512,1020,519,2,0,0
1769151046.292024,2026-01-23 15:50:46.292,128,0,1,1,0,0,511,1020,519,2,0,0
1769151046.293024,2026-01-23 15:50:46.293,129,1,1,1,0,0,513,1020,518,2,0,0
1769151046.294024,2026-01-23 15:50:46.294,130,2,1,1,0,0,512,1020,518,2,0,0
1769151046.295024,2026-01-23 15:50:46.295,131,3,1,1,0,0,510,1020,517,2,0,0
1769151046.296024,2026-01-23 15:50:46.296,132,4,1,1,0,0,513,1020,515,2,0,0
1769151046.297024,2026-01-23 15:50:46.297,133,5,1,1,0,0,512,1020,514,2,0,0
1769151046.298024,2026-01-23 15:50:46.298,134,6,1,1,0,0,512,1020,514,2,0,0
1769151046.299024,2026-01-23 15:50:46.299,135,7,1,1,0,0,511,1020,514,2,0,0
1769151046.300024,2026-01-23 15:50:46.300,136,8,1,1,0,0,512,1020,514,2,0,0
1769151046.301024,2026-01-23 15:50:46.301,137,9,1,1,0,0,512,1020,515,2,0,0
1769151046.302024,2026-01-23 15:50:46.302,138,10,1,1,0,0,511,1020,515,2,0,0
1769151046.303024,2026-01-23 15:50:46.303,139,11,1,1,0,0,511,1020,516,2,0,0
1769151046.304024,2026-01-23 15:50:46.304,140,12,1,1,0,0,512,1020,517,2,0,0
1769151046.305024,2026-01-23 15:50:46.305,141,13,1,1,0,0,511,1020,517,2,0,0
1769151046.306024,2026-01-23 15:50:46.306,142,14,1,1,0,0,510,1020,517,2,0,0
1769151046.307024,2026-01-23 15:50:46.307,143,15,1,1,0,0,509,1020,518,2,0,0
1769151046.308024,2026-01-23 15:50:46.308,144,0,1,1,0,0,508,1020,517,2,0,0
1769151046.309024,2026-01-23 15:50:46.309,145,1,1,1,0,0,508,1020,516,2,0,0
1769151046.310024,2026-01-23 15:50:46.310,146,2,1,1,0,0,511,1020,516,2,0,0
1769151046.311024,2026-01-23 15:50:46.311,147,3,1,1,0,0,512,1020,515,2,0,0
1769151046.312024,2026-01-23 15:50:46.312,148,4,1,1,0,0,511,1020,515,2,0,0
1769151046.313024,2026-01-23 15:50:46.313,149,5,1,1,0,0,512,1020,514,2,0,0
1769151046.314024,2026-01-23 15:50:46.314,150,6,1,1,0,0,511,1020,514,2,0,0
1769151046.315024,2026-01-23 15:50:46.315,151,7,1,1,0,0,512,1020,513,2,0,0
1769151046.316024,2026-01-23 15:50:46.316,152,8,1,1,0,0,512,1020,514,2,0,0
1769151046.317024,2026-01-23 15:50:46.317,153,9,1,1,0,0,511,1020,514,2,0,0
1769151046.318024,2026-01-23 15:50:46.318,154,10,1,1,0,0,513,1020,515,2,0,0
1769151046.319024,2026-01-23 15:50:46.319,155,11,1,1,0,0,514,1020,516,2,0,0
1769151046.320024,2026-01-23 15:50:46.320,156,12,1,1,0,0,513,1020,517,2,0,0
1769151046.321024,2026-01-23 15:50:46.321,157,13,1,1,0,0,514,1020,517,2,0,0
1769151046.322024,2026-01-23 15:50:46.322,158,14,1,1,0,0,512,1020,517,2,0,0
1769151046.323024,2026-01-23 15:50:46.323,159,15,1,1,0,0,512,1020,517,2,0,0
1769151046.324024,2026-01-23 15:50:46.324,160,0,1,1,0,0,511,1020,517,2,0,0
1769151046.325024,2026-01-23 15:50:46.325,161,1,1,1,0,0,511,1020,518,2,0,0
1769151046.326024,2026-01-23 15:50:46.326,162,2,1,1,0,0,509,1020,517,2,0,0
1769151046.327024,2026-01-23 15:50:46.327,163,3,1,1,0,0,512,1020,516,2,0,0
1769151046.328024,2026-01-23 15:50:46.328,164,4,1,1,0,0,512,1020,516,2,0,0
1769151046.329024,2026-01-23 15:50:46.329,165,5,1,1,0,0,512,1020,515,2,0,0
1769151046.330024,2026-01-23 15:50:46.330,166,6,1,1,0,0,513,1020,514,2,0,0
1769151046.331024,2026-01-23 15:50:46.331,167,7,1,1,0,0,508,1020,512,2,0,0
1769151046.332024,2026-01-23 15:50:46.332,168,8,1,1,0,0,512,1020,512,2,0,0
1769151046.333024,2026-01-23 15:50:46.333,169,9,1,1,0,0,512,1020,512,2,0,0
1769151046.334024,2026-01-23 15:50:46.334,170,10,1,1,0,0,512,1020,513,2,0,0
1769151046.335024,2026-01-23 15:50:46.335,171,11,1,1,0,0,510,1020,514,2,0,0
1769151046.336024,2026-01-23 15:50:46.336,172,12,1,1,0,0,511,1020,514,2,0,0
1769151046.337024,2026-01-23 15:50:46.337,173,13,1,1,0,0,512,1020,515,2,0,0
1769151046.338024,2026-01-23 15:50:46.338,174,14,1,1,0,0,510,1020,516,2,0,0
1769151046.339024,2026-01-23 15:50:46.339,175,15,1,1,0,0,511,1020,516,2,0,0
1769151046.340024,2026-01-23 15:50:46.340,176,0,1,1,0,0,510,1020,516,2,0,0
1769151046.341024,2026-01-23 15:50:46.341,177,1,1,1,0,0,513,1020,516,2,0,0
1769151046.342024,2026-01-23 15:50:46.342,178,2,1,1,0,0,512,1020,515,2,0,0
1769151046.343024,2026-01-23 15:50:46.343,179,3,1,1,0,0,512,1020,515,2,0,0
1769151046.344024,2026-01-23 15:50:46.344,180,4,1,1,0,0,510,1020,514,2,0,0
1769151046.345024,2026-01-23 15:50:46.345,181,5,1,1,0,0,509,1020,513,2,0,0
1769151046.346024,2026-01-23 15:50:46.346,182,6,1,1,0,0,510,1020,513,2,0,0
1769151046.347024,2026-01-23 15:50:46.347,183,7,1,1,0,0,510,1020,512,2,0,0
1769151046.348024,2026-01-23 15:50:46.348,184,8,1,1,0,0,510,1020,511,2,0,0
1769151046.349024,2026-01-23 15:50:46.349,185,9,1,1,0,0,512,1020,511,2,0,0
1769151046.350024,2026-01-23 15:50:46.350,186,10,1,1,0,0,512,1020,511,2,0,0
1769151046.351024,2026-01-23 15:50:46.351,187,11,1,1,0,0,512,1020,512,2,0,0
1769151046.352024,2026-01-23 15:50:46.352,188,12,1,1,0,0,512,1020,513,2,0,0
1769151046.353024,2026-01-23 15:50:46.353,189,13,1,1,0,0,512,1020,513,2,0,0
1769151046.354024,2026-01-23 15:50:46.354,190,14,1,1,0,0,510,1020,514,2,0,0
1769151046.355024,2026-01-23 15:50:46.355,191,15,1,1,0,0,512,1020,514,2,0,0
1769151046.356024,2026-01-23 15:50:46.356,192,0,1,1,0,0,514,1020,514,2,0,0
1769151046.357024,2026-01-23 15:50:46.357,193,1,1,1,0,0,510,1020,515,2,0,0
1769151046.358024,2026-01-23 15:50:46.358,194,2,1,1,0,0,513,1020,515,2,0,0
1769151046.359024,2026-01-23 15:50:46.359,195,3,1,1,0,0,511,1020,514,2,0,0
1769151046.360024,2026-01-23 15:50:46.360,196,4,1,1,0,0,510,1020,514,2,0,0
1769151046.361024,2026-01-23 15:50:46.361,197,5,1,1,0,0,508,1020,513,2,0,0
1769151046.362024,2026-01-23 15:50:46.362,198,6,1,1,0,0,507,1020,512,2,0,0
1769151046.363024,2026-01-23 15:50:46.363,199,7,1,1,0,0,510,1020,511,2,0,0
1769151046.364024,2026-01-23 15:50:46.364,200,8,1,1,0,0,511,1020,511,2,0,0
1769151046.365024,2026-01-23 15:50:46.365,201,9,1,1,0,0,515,1020,511,2,0,0
1769151046.366024,2026-01-23 15:50:46.366,202,10,1,1,0,0,515,1020,510,2,0,0
1769151046.367024,2026-01-23 15:50:46.367,203,11,1,1,0,0,512,1020,510,2,0,0
1769151046.368024,2026-01-23 15:50:46.368,204,12,1,1,0,0,511,1020,511,2,0,0
1769151046.369024,2026-01-23 15:50:46.369,205,13,1,1,0,0,512,1020,512,2,0,0
1769151046.370024,2026-01-23 15:50:46.370,206,14,1,1,0,0,512,1020,513,2,0,0
1769151046.371024,2026-01-23 15:50:46.371,207,15,1,1,0,0,514,1020,513,2,0,0
1769151046.372024,2026-01-23 15:50:46.372,208,0,1,1,0,0,512,1020,513,2,0,0
1769151046.373024,2026-01-23 15:50:46.373,209,1,1,1,0,0,511,1020,514,2,0,0
1769151046.374024,2026-01-23 15:50:46.374,210,2,1,1,0,0,509,1020,514,2,0,0
1769151046.375024,2026-01-23 15:50:46.375,211,3,1,1,0,0,510,1020,514,2,0,0
1769151046.376024,2026-01-23 15:50:46.376,212,4,1,1,0,0,511,1020,514,2,0,0
1769151046.377024,2026-01-23 15:50:46.377,213,5,1,1,0,0,511,1020,513,2,0,0
1769151046.378024,2026-01-23 15:50:46.378,214,6,1,1,0,0,511,1020,513,2,0,0
1769151046.379024,2026-01-23 15:50:46.379,215,7,1,1,0,0,512,1020,512,2,0,0
1769151046.380024,2026-01-23 15:50:46.380,216,8,1,1,0,0,510,1020,511,2,0,0
1769151046.381024,2026-01-23 15:50:46.381,217,9,1,1,0,0,513,1020,510,2,0,0
1769151046.382024,2026-01-23 15:50:46.382,218,10,1,1,0,0,513,1020,510,2,0,0
1769151046.383024,2026-01-23 15:50:46.383,219,11,1,1,0,0,511,1020,510,2,0,0
1769151046.384024,2026-01-23 15:50:46.384,220,12,1,1,0,0,512,1020,510,2,0,0
1769151046.385024,2026-01-23 15:50:46.385,221,13,1,1,0,0,512,1020,511,2,0,0
1769151046.386024,2026-01-23 15:50:46.386,222,14,1,1,0,0,512,1020,512,2,0,0
1769151046.387024,2026-01-23 15:50:46.387,223,15,1,1,0,0,511,1020,512,2,0,0
1769151046.388024,2026-01-23 15:50:46.388,224,0,1,1,0,0,512,1020,513,2,0,0
1769151046.389024,2026-01-23 15:50:46.389,225,1,1,1,0,0,510,1020,513,2,0,0
1769151046.390024,2026-01-23 15:50:46.390,226,2,1,1,0,0,508,1020,513,2,0,0
1769151046.391024,2026-01-23 15:50:46.391,227,3,1,1,0,0,512,1020,513,2,0,0
1769151046.392024,2026-01-23 15:50:46.392,228,4,1,1,0,0,511,1020,513,2,0,0
1769151046.393024,2026-01-23 15:50:46.393,229,5,1,1,0,0,512,1020,513,2,0,0
1769151046.394024,2026-01-23 15:50:46.394,230,6,1,1,0,0,511,1020,512,2,0,0
1769151046.395024,2026-01-23 15:50:46.395,231,7,1,1,0,0,508,1020,511,2,0,0
1769151046.396024,2026-01-23 15:50:46.396,232,8,1,1,0,0,512,1020,510,2,0,0
1769151046.397024,2026-01-23 15:50:46.397,233,9,1,1,0,0,512,1020,510,2,0,0
1769151046.398024,2026-01-23 15:50:46.398,234,10,1,1,0,0,513,1020,509,2,0,0
1769151046.399024,2026-01-23 15:50:46.399,235,11,1,1,0,0,513,1020,509,2,0,0
1769151046.400024,2026-01-23 15:50:46.400,236,12,1,1,0,0,513,1020,509,2,0,0
1769151046.401024,2026-01-23 15:50:46.401,237,13,1,1,0,0,512,1020,510,2,0,0
1769151046.402024,2026-01-23 15:50:46.402,238,14,1,1,0,0,511,1020,511,2,0,0
1769151046.403024,2026-01-23 15:50:46.403,239,15,1,1,0,0,511,1020,511,2,0,0
1769151046.404024,2026-01-23 15:50:46.404,240,0,1,1,0,0,511,1020,513,2,0,0
1769151046.405024,2026-01-23 15:50:46.405,241,1,1,1,0,0,512,1020,513,2,0,0
1769151046.406024,2026-01-23 15:50:46.406,242,2,1,1,0,0,512,1020,513,2,0,0
1769151046.407024,2026-01-23 15:50:46.407,243,3,1,1,0,0,511,1020,512,2,0,0
1769151046.408024,2026-01-23 15:50:46.408,244,4,1,1,0,0,512,1020,512,2,0,0
1769151046.409024,2026-01-23 15:50:46.409,245,5,1,1,0,0,510,1020,512,2,0,0
1769151046.410024,2026-01-23 15:50:46.410,246,6,1,1,0,0,510,1020,511,2,0,0
1769151046.411024,2026-01-23 15:50:46.411,247,7,1,1,0,0,512,1020,510,2,0,0
1769151046.412024,2026-01-23 15:50:46.412,248,8,1,1,0,0,510,1020,510,2,0,0
1769151046.413024,2026-01-23 15:50:46.413,249,9,1,1,0,0,511,1020,509,2,0,0
1769151046.414024,2026-01-23 15:50:46.414,250,10,1,1,0,0,512,1020,508,2,0,0
1769151046.415024,2026-01-23 15:50:46.415,251,11,1,1,0,0,512,1020,508,2,0,0
1769151046.416024,2026-01-23 15:50:46.416,252,12,1,1,0,0,512,1020,508,2,0,0
1769151046.417024,2026-01-23 15:50:46.417,253,13,1,1,0,0,512,1020,508,2,0,0
1769151046.418024,2026-01-23 15:50:46.418,254,14,1,1,0,0,512,1020,509,2,0,0
1769151046.419024,2026-01-23 15:50:46.419,255,15,1,1,0,0,511,1020,510,2,0,0
1769151046.420024,2026-01-23 15:50:46.420,256,0,1,1,0,0,512,1020,511,2,0,0
1769151046.421024,2026-01-23 15:50:46.421,257,1,1,1,0,0,512,1020,512,2,0,0
1769151046.422024,2026-01-23 15:50:46.422,258,2,1,1,0,0,510,1020,512,2,0,0
1769151046.423024,2026-01-23 15:50:46.423,259,3,1,1,0,0,511,1020,512,2,0,0
1769151046.424024,2026-01-23 15:50:46.424,260,4,1,1,0,0,511,1020,512,2,0,0
1769151046.425024,2026-01-23 15:50:46.425,261,5,1,1,0,0,510,1020,512,2,0,0
1769151046.426024,2026-01-23 15:50:46.426,262,6,1,1,0,0,512,1020,511,2,0,0
1769151046.427024,2026-01-23 15:50:46.427,263,7,1,1,0,0,511,1020,510,2,0,0
1769151046.428024,2026-01-23 15:50:46.428,264,8,1,1,0,0,508,1020,510,2,0,0
1769151046.429024,2026-01-23 15:50:46.429,265,9,1,1,0,0,511,1020,509,2,0,0
1769151046.430024,2026-01-23 15:50:46.430,266,10,1,1,0,0,511,1020,508,2,0,0
1769151046.431024,2026-01-23 15:50:46.431,267,11,1,1,0,0,512,1020,508,2,0,0
1769151046.432024,2026-01-23 15:50:46.432,268,12,1,1,0,0,514,1020,507,2,0,0
1769151046.433024,2026-01-23 15:50:46.433,269,13,1,1,0,0,512,1020,508,2,0,0
1769151046.434024,2026-01-23 15:50:46.434,270,14,1,1,0,0,513,1020,508,2,0,0
1769151046.435024,2026-01-23 15:50:46.435,271,15,1,1,0,0,512,1020,508,2,0,0
1769151046.436024,2026-01-23 15:50:46.436,272,0,1,1,0,0,511,1020,508,2,0,0
1769151046.437024,2026-01-23 15:50:46.437,273,1,1,1,0,0,512,1020,509,2,0,0
1769151046.438024,2026-01-23 15:50:46.438,274,2,1,1,0,0,512,1020,510,2,0,0
1769151046.439024,2026-01-23 15:50:46.439,275,3,1,1,0,0,512,1020,510,2,0,0
1769151046.440024,2026-01-23 15:50:46.440,276,4,1,1,0,0,510,1020,510,2,0,0
1769151046.441024,2026-01-23 15:50:46.441,277,5,1,1,0,0,512,1020,510,2,0,0
1769151046.442024,2026-01-23 15:50:46.442,278,6,1,1,0,0,511,1020,509,2,0,0
1769151046.443024,2026-01-23 15:50:46.443,279,7,1,1,0,0,508,1020,509,2,0,0
1769151046.444024,2026-01-23 15:50:46.444,280,8,1,1,0,0,511,1020,508,2,0,0
1769151046.445024,2026-01-23 15:50:46.445,281,9,1,1,0,0,510,1020,508,2,0,0
1769151046.446024,2026-01-23 15:50:46.446,282,10,1,1,0,0,511,1020,507,2,0,0
1769151046.447024,2026-01-23 15:50:46.447,283,11,1,1,0,0,512,1020,506,2,0,0
1769151046.448024,2026-01-23 15:50:46.448,284,12,1,1,0,0,511,1020,505,2,0,0
1769151046.449024,2026-01-23 15:50:46.449,285,13,1,1,0,0,512,1020,506,2,0,0
1769151046.450024,2026-01-23 15:50:46.450,286,14,1,1,0,0,510,1020,506,2,0,0
1769151046.451024,2026-01-23 15:50:46.451,287,15,1,1,0,0,511,1020,507,2,0,0
1769151046.452024,2026-01-23 15:50:46.452,288,0,1,1,0,0,512,1020,507,2,0,0
1769151046.453024,2026-01-23 15:50:46.453,289,1,1,1,0,0,512,1020,507,2,0,0
1769151046.454024,2026-01-23 15:50:46.454,290,2,1,1,0,0,512,1020,508,2,0,0
1769151046.455024,2026-01-23 15:50:46.455,291,3,1,1,0,0,513,1020,508,2,0,0
1769151046.456024,2026-01-23 15:50:46.456,292,4,1,1,0,0,514,1020,508,2,0,0
1769151046.457024,2026-01-23 15:50:46.457,293,5,1,1,0,0,514,1020,507,2,0,0
1769151046.458024,2026-01-23 15:50:46.458,294,6,1,1,0,0,511,1020,507,2,0,0
1769151046.459024,2026-01-23 15:50:46.459,295,7,1,1,0,0,510,1020,506,2,0,0
1769151046.460024,2026-01-23 15:50:46.460,296,8,1,1,0,0,509,1020,506,2,0,0
1769151046.461024,2026-01-23 15:50:46.461,297,9,1,1,0,0,511,1020,505,2,0,0
1769151046.462024,2026-01-23 15:50:46.462,298,10,1,1,0,0,509,1020,504,2,0,0
1769151046.463024,2026-01-23 15:50:46.463,299,11,1,1,0,0,512,1020,503,2,0,0
1769151046.464024,2026-01-23 15:50:46.464,300,12,1,1,0,0,512,1020,503,2,0,0
1769151046.465024,2026-01-23 15:50:46.465,301,13,1,1,0,0,513,1020,503,2,0,0
1769151046.466024,2026-01-23 15:50:46.466,302,14,1,1,0,0,512,1020,503,2,0,0
1769151046.467024,2026-01-23 15:50:46.467,303,15,1,1,0,0,512,1020,503,2,0,0
1769151046.468024,2026-01-23 15:50:46.468,304,0,1,1,0,0,512,1020,503,2,0,0
1769151046.469024,2026-01-23 15:50:46.469,305,1,1,1,0,0,512,1020,504,2,0,0
1769151046.470024,2026-01-23 15:50:46.470,306,2,1,1,0,0,511,1020,505,2,0,0
1769151046.471024,2026-01-23 15:50:46.471,307,3,1,1,0,0,511,1020,506,2,0,0
1769151046.472024,2026-01-23 15:50:46.472,308,4,1,1,0,0,512,1020,507,2,0,0
1769151046.473024,2026-01-23 15:50:46.473,309,5,1,1,0,0,510,1020,508,2,0,0
1769151046.474024,2026-01-23 15:50:46.474,310,6,1,1,0,0,510,1020,508,2,0,0
1769151046.475024,2026-01-23 15:50:46.475,311,7,1,1,0,0,513,1020,508,2,0,0
1769151046.476024,2026-01-23 15:50:46.476,312,8,1,1,0,0,512,1020,508,2,0,0
1769151046.477024,2026-01-23 15:50:46.477,313,9,1,1,0,0,512,1020,508,2,0,0
1769151046.478024,2026-01-23 15:50:46.478,314,10,1,1,0,0,511,1020,507,2,0,0
1769151046.479024,2026-01-23 15:50:46.479,315,11,1,1,0,0,512,1020,507,2,0,0
1769151046.480024,2026-01-23 15:50:46.480,316,12,1,1,0,0,512,1020,507,2,0,0
1769151046.481024,2026-01-23 15:50:46.481,317,13,1,1,0,0,511,1020,506,2,0,0
1769151046.482024,2026-01-23 15:50:46.482,318,14,1,1,0,0,512,1020,506,2,0,0
1769151046.483024,2026-01-23 15:50:46.483,319,15,1,1,0,0,511,1020,506,2,0,0
1769151046.484024,2026-01-23 15:50:46.484,320,0,1,1,0,0,512,1020,507,2,0,0
1769151046.485024,2026-01-23 15:50:46.485,321,1,1,1,0,0,511,1020,507,2,0,0
1769151046.486024,2026-01-23 15:50:46.486,322,2,1,1,0,0,511,1020,507,2,0,0
1769151046.487024,2026-01-23 15:50:46.487,323,3,1,1,0,0,511,1020,507,2,0,0
1769151046.488024,2026-01-23 15:50:46.488,324,4,1,1,0,0,511,1020,507,2,0,0
1769151046.489024,2026-01-23 15:50:46.489,325,5,1,1,0,0,508,1020,507,2,0,0
1769151046.490024,2026-01-23 15:50:46.490,326,6,1,1,0,0,511,1020,505,2,0,0
1769151046.491024,2026-01-23 15:50:46.491,327,7,1,1,0,0,511,1020,505,2,0,0
1769151046.492024,2026-01-23 15:50:46.492,328,8,1,1,0,0,512,1020,503,2,0,0
1769151046.493024,2026-01-23 15:50:46.493,329,9,1,1,0,0,512,1020,503,2,0,0
1769151046.494024,2026-01-23 15:50:46.494,330,10,1,1,0,0,511,1020,501,2,0,0
1769151046.495024,2026-01-23 15:50:46.495,331,11,1,1,0,0,511,1020,500,2,0,0
1769151046.496024,2026-01-23 15:50:46.496,332,12,1,1,0,0,512,1020,499,2,0,0
1769151046.497024,2026-01-23 15:50:46.497,333,13,1,1,0,0,512,1020,499,2,0,0
1769151046.498024,2026-01-23 15:50:46.498,334,14,1,1,0,0,512,1020,499,2,0,0
1769151046.499024,2026-01-23 15:50:46.499,335,15,1,1,0,0,511,1020,499,2,0,0
1769151046.500024,2026-01-23 15:50:46.500,336,0,1,1,0,0,511,1020,499,2,0,0
1769151046.501024,2026-01-23 15:50:46.501,337,1,1,1,0,0,513,1020,501,2,0,0
1769151046.502024,2026-01-23 15:50:46.502,338,2,1,1,0,0,511,1020,503,2,0,0
1769151046.503024,2026-01-23 15:50:46.503,339,3,1,1,0,0,511,1020,504,2,0,0
1769151046.504024,2026-01-23 15:50:46.504,340,4,1,1,0,0,511,1020,505,2,0,0
1769151046.505024,2026-01-23 15:50:46.505,341,5,1,1,0,0,511,1020,507,2,0,0
1769151046.506024,2026-01-23 15:50:46.506,342,6,1,1,0,0,512,1020,508,2,0,0
1769151046.507024,2026-01-23 15:50:46.507,343,7,1,1,0,0,512,1020,509,2,0,0
1769151046.508024,2026-01-23 15:50:46.508,344,8,1,1,0,0,512,1020,510,2,0,0
1769151046.509024,2026-01-23 15:50:46.509,345,9,1,1,0,0,511,1020,511,2,0,0
1769151046.510024,2026-01-23 15:50:46.510,346,10,1,1,0,0,511,1020,511,2,0,0
1769151046.511024,2026-01-23 15:50:46.511,347,11,1,1,0,0,511,1020,511,2,0,0
1769151046.512024,2026-01-23 15:50:46.512,348,12,1,1,0,0,512,1020,510,2,0,0
1769151046.513024,2026-01-23 15:50:46.513,349,13,1,1,0,0,511,1020,510,2,0,0
1769151046.514024,2026-01-23 15:50:46.514,350,14,1,1,0,0,511,1020,510,2,0,0
1769151046.515024,2026-01-23 15:50:46.515,351,15,1,1,0,0,511,1020,509,2,0,0
1769151046.516024,2026-01-23 15:50:46.516,352,0,1,1,0,0,511,1020,509,2,0,0
1769151046.517024,2026-01-23 15:50:46.517,353,1,1,1,0,0,512,1020,510,2,0,0
1769151046.518024,2026-01-23 15:50:46.518,354,2,1,1,0,0,510,1020,511,2,0,0
1769151046.519024,2026-01-23 15:50:46.519,355,3,1,1,0,0,511,1020,512,2,0,0
1769151046.520024,2026-01-23 15:50:46.520,356,4,1,1,0,0,512,1020,514,2,0,0
1769151046.521024,2026-01-23 15:50:46.521,357,5,1,1,0,0,512,1020,515,2,0,0
1769151046.522024,2026-01-23 15:50:46.522,358,6,1,1,0,0,512,1020,515,2,0,0
1769151046.523024,2026-01-23 15:50:46.523,359,7,1,1,0,0,513,1020,515,2,0,0
1769151046.524024,2026-01-23 15:50:46.524,360,8,1,1,0,0,512,1020,516,2,0,0
1769151046.525024,2026-01-23 15:50:46.525,361,9,1,1,0,0,512,1020,516,2,0,0
1769151046.526024,2026-01-23 15:50:46.526,362,10,1,1,0,0,510,1020,515,2,0,0
1769151046.527024,2026-01-23 15:50:46.527,363,11,1,1,0,0,510,1020,515,2,0,0
1769151046.528024,2026-01-23 15:50:46.528,364,12,1,1,0,0,512,1020,515,2,0,0
1769151046.529024,2026-01-23 15:50:46.529,365,13,1,1,0,0,511,1020,514,2,0,0
1769151046.530024,2026-01-23 15:50:46.530,366,14,1,1,0,0,511,1020,513,2,0,0
1769151046.531024,2026-01-23 15:50:46.531,367,15,1,1,0,0,511,1020,513,2,0,0
1769151046.532024,2026-01-23 15:50:46.532,368,0,1,1,0,0,510,1020,513,2,0,0
1769151046.533024,2026-01-23 15:50:46.533,369,1,1,1,0,0,510,1020,512,2,0,0
1769151046.534024,2026-01-23 15:50:46.534,370,2,1,1,0,0,512,1020,513,2,0,0
1769151046.535024,2026-01-23 15:50:46.535,371,3,1,1,0,0,514,1020,514,2,0,0
1769151046.536024,2026-01-23 15:50:46.536,372,4,1,1,0,0,518,1020,515,2,0,0
1769151046.537024,2026-01-23 15:50:46.537,373,5,1,1,0,0,517,1020,517,2,0,0
1769151046.538024,2026-01-23 15:50:46.538,374,6,1,1,0,0,511,1020,517,2,0,0
1769151046.539024,2026-01-23 15:50:46.539,375,7,1,1,0,0,508,1020,518,2,0,0
1769151046.540024,2026-01-23 15:50:46.540,376,8,1,1,0,0,508,1020,518,2,0,0
1769151046.541024,2026-01-23 15:50:46.541,377,9,1,1,0,0,509,1020,518,2,0,0
1769151046.542024,2026-01-23 15:50:46.542,378,10,1,1,0,0,511,1020,518,2,0,0
1769151046.543024,2026-01-23 15:50:46.543,379,11,1,1,0,0,510,1020,517,2,0,0
1769151046.544024,2026-01-23 15:50:46.544,380,12,1,1,0,0,511,1020,516,2,0,0
1769151046.545024,2026-01-23 15:50:46.545,381,13,1,1,0,0,512,1020,516,2,0,0
1769151046.546024,2026-01-23 15:50:46.546,382,14,1,1,0,0,511,1020,515,2,0,0
1769151046.547024,2026-01-23 15:50:46.547,383,15,1,1,0,0,510,1020,514,2,0,0
1769151046.548024,2026-01-23 15:50:46.548,384,0,1,1,0,0,512,1020,514,2,0,0
1769151046.549024,2026-01-23 15:50:46.549,385,1,1,1,0,0,512,1020,514,2,0,0
1769151046.550024,2026-01-23 15:50:46.550,386,2,1,1,0,0,511,1020,514,2,0,0
1769151046.551024,2026-01-23 15:50:46.551,387,3,1,1,0,0,514,1020,515,2,0,0
1769151046.552024,2026-01-23 15:50:46.552,388,4,1,1,0,0,514,1020,515,2,0,0
1769151046.553024,2026-01-23 15:50:46.553,389,5,1,1,0,0,512,1020,516,2,0,0
1769151046.554024,2026-01-23 15:50:46.554,390,6,1,1,0,0,512,1020,517,2,0,0
1769151046.555024,2026-01-23 15:50:46.555,391,7,1,1,0,0,511,1020,517,2,0,0
1769151046.556024,2026-01-23 15:50:46.556,392,8,1,1,0,0,510,1020,518,2,0,0
1769151046.557024,2026-01-23 15:50:46.557,393,9,1,1,0,0,512,1020,517,2,0,0
1769151046.558024,2026-01-23 15:50:46.558,394,10,1,1,0,0,511,1020,518,2,0,0
1769151046.559024,2026-01-23 15:50:46.559,395,11,1,1,0,0,508,1020,517,2,0,0
1769151046.560024,2026-01-23 15:50:46.560,396,12,1,1,0,0,510,1020,517,2,0,0
1769151046.561024,2026-01-23 15:50:46.561,397,13,1,1,0,0,508,1020,517,2,0,0
1769151046.562024,2026-01-23 15:50:46.562,398,14,1,1,0,0,510,1020,516,2,0,0
1769151046.563024,2026-01-23 15:50:46.563,399,15,1,1,0,0,513,1020,515,2,0,0
1769151046.564024,2026-01-23 15:50:46.564,400,0,1,1,0,0,514,1020,515,2,0,0
1769151046.565024,2026-01-23 15:50:46.565,401,1,1,1,0,0,513,1020,514,2,0,0
1769151046.566024,2026-01-23 15:50:46.566,402,2,1,1,0,0,513,1020,513,2,0,0
1769151046.567024,2026-01-23 15:50:46.567,403,3,1,1,0,0,511,1020,514,2,0,0
1769151046.568024,2026-01-23 15:50:46.568,404,4,1,1,0,0,512,1020,515,2,0,0
1769151046.569024,2026-01-23 15:50:46.569,405,5,1,1,0,0,512,1020,515,2,0,0
1769151046.570024,2026-01-23 15:50:46.570,406,6,1,1,0,0,512,1020,516,2,0,0
1769151046.571024,2026-01-23 15:50:46.571,407,7,1,1,0,0,512,1020,516,2,0,0
1769151046.572024,2026-01-23 15:50:46.572,408,8,1,1,0,0,510,1020,518,2,0,0
1769151046.573024,2026-01-23 15:50:46.573,409,9,1,1,0,0,512,1020,518,2,0,0
1769151046.574024,2026-01-23 15:50:46.574,410,10,1,1,0,0,511,1020,518,2,0,0
1769151046.575024,2026-01-23 15:50:46.575,411,11,1,1,0,0,510,1020,517,2,0,0
1769151046.576024,2026-01-23 15:50:46.576,412,12,1,1,0,0,509,1020,516,2,0,0
1769151046.577024,2026-01-23 15:50:46.577,413,13,1,1,0,0,512,1020,515,2,0,0
1769151046.578024,2026-01-23 15:50:46.578,414,14,1,1,0,0,510,1020,514,2,0,0
1769151046.579024,2026-01-23 15:50:46.579,415,15,1,1,0,0,508,1020,513,2,0,0
1769151046.580024,2026-01-23 15:50:46.580,416,0,1,1,0,0,509,1020,512,2,0,0
1769151046.581024,2026-01-23 15:50:46.581,417,1,1,1,0,0,513,1020,512,2,0,0
1769151046.582024,2026-01-23 15:50:46.582,418,2,1,1,0,0,512,1020,511,2,0,0
1769151046.583024,2026-01-23 15:50:46.583,419,3,1,1,0,0,512,1020,510,2,0,0
1769151046.584024,2026-01-23 15:50:46.584,420,4,1,1,0,0,511,1020,511,2,0,0
1769151046.585024,2026-01-23 15:50:46.585,421,5,1,1,0,0,512,1020,511,2,0,0
1769151046.586024,2026-01-23 15:50:46.586,422,6,1,1,0,0,512,1020,512,2,0,0
1769151046.587024,2026-01-23 15:50:46.587,423,7,1,1,0,0,514,1020,513,2,0,0
1769151046.588024,2026-01-23 15:50:46.588,424,8,1,1,0,0,513,1020,514,2,0,0
1769151046.589024,2026-01-23 15:50:46.589,425,9,1,1,0,0,510,1020,514,2,0,0
1769151046.590024,2026-01-23 15:50:46.590,426,10,1,1,0,0,510,1020,515,2,0,0
1769151046.591024,2026-01-23 15:50:46.591,427,11,1,1,0,0,510,1020,515,2,0,0
1769151046.592024,2026-01-23 15:50:46.592,428,12,1,1,0,0,513,1020,515,2,0,0
1769151046.593024,2026-01-23 15:50:46.593,429,13,1,1,0,0,513,1020,514,2,0,0
1769151046.594024,2026-01-23 15:50:46.594,430,14,1,1,0,0,511,1020,513,2,0,0
1769151046.595024,2026-01-23 15:50:46.595,431,15,1,1,0,0,512,1020,513,2,0,0
1769151046.596024,2026-01-23 15:50:46.596,432,0,1,1,0,0,510,1020,512,2,0,0
1769151046.597024,2026-01-23 15:50:46.597,433,1,1,1,0,0,510,1020,511,2,0,0
1769151046.598024,2026-01-23 15:50:46.598,434,2,1,1,0,0,512,1020,511,2,0,0
1769151046.599024,2026-01-23 15:50:46.599,435,3,1,1,0,0,511,1020,511,2,0,0
1769151046.600024,2026-01-23 15:50:46.600,436,4,1,1,0,0,513,1020,511,2,0,0
1769151046.601024,2026-01-23 15:50:46.601,437,5,1,1,0,0,514,1020,512,2,0,0
1769151046.602024,2026-01-23 15:50:46.602,438,6,1,1,0,0,513,1020,512,2,0,0
1769151046.603024,2026-01-23 15:50:46.603,439,7,1,1,0,0,512,1020,513,2,0,0
1769151046.604024,2026-01-23 15:50:46.604,440,8,1,1,0,0,513,1020,513,2,0,0
1769151046.605024,2026-01-23 15:50:46.605,441,9,1,1,0,0,511,1020,514,2,0,0
1769151046.606024,2026-01-23 15:50:46.606,442,10,1,1,0,0,509,1020,515,2,0,0
1769151046.607024,2026-01-23 15:50:46.607,443,11,1,1,0,0,510,1020,516,2,0,0
1769151046.608024,2026-01-23 15:50:46.608,444,12,1,1,0,0,511,1020,517,2,0,0
1769151046.609024,2026-01-23 15:50:46.609,445,13,1,1,0,0,511,1020,518,2,0,0
1769151046.610024,2026-01-23 15:50:46.610,446,14,1,1,0,0,510,1020,519,2,0,0
1769151046.611024,2026-01-23 15:50:46.611,447,15,1,1,0,0,511,1020,519,2,0,0
1769151046.612024,2026-01-23 15:50:46.612,448,0,1,1,0,0,511,1020,519,2,0,0
1769151046.613024,2026-01-23 15:50:46.613,449,1,1,1,0,0,509,1020,519,2,0,0
1769151046.614024,2026-01-23 15:50:46.614,450,2,1,1,0,0,511,1020,518,2,0,0
1769151046.615024,2026-01-23 15:50:46.615,451,3,1,1,0,0,513,1020,518,2,0,0
1769151046.616024,2026-01-23 15:50:46.616,452,4,1,1,0,0,512,1020,518,2,0,0
1769151046.617024,2026-01-23 15:50:46.617,453,5,1,1,0,0,513,1020,517,2,0,0
1769151046.618024,2026-01-23 15:50:46.618,454,6,1,1,0,0,513,1020,518,2,0,0
1769151046.619024,2026-01-23 15:50:46.619,455,7,1,1,0,0,513,1020,517,2,0,0
1769151046.620024,2026-01-23 15:50:46.620,456,8,1,1,0,0,513,1020,516,2,0,0
1769151046.621024,2026-01-23 15:50:46.621,457,9,1,1,0,0,511,1020,515,2,0,0
1769151046.622024,2026-01-23 15:50:46.622,458,10,1,1,0,0,513,1020,510,2,0,0
1769151046.623024,2026-01-23 15:50:46.623,459,11,1,1,0,0,513,1020,507,2,0,0
1769151046.624024,2026-01-23 15:50:46.624,460,12,1,1,0,0,508,1020,502,2,0,0
1769151046.625024,2026-01-23 15:50:46.625,461,13,1,1,0,0,510,1020,495,2,0,0
1769151046.626024,2026-01-23 15:50:46.626,462,14,1,1,0,0,511,1020,487,2,0,0
1769151046.627024,2026-01-23 15:50:46.627,463,15,1,1,0,0,510,1020,481,2,0,0
1769151046.628024,2026-01-23 15:50:46.628,464,0,1,1,0,0,510,1020,474,2,0,0
1769151046.629024,2026-01-23 15:50:46.629,465,1,1,1,0,0,510,1020,467,2,0,0
1769151046.630024,2026-01-23 15:50:46.630,466,2,1,1,0,0,511,1020,461,2,0,0
1769151046.631024,2026-01-23 15:50:46.631,467,3,1,1,0,0,511,1020,455,2,0,0
1769151046.632024,2026-01-23 15:50:46.632,468,4,1,1,0,0,511,1020,447,1,0,0
1769151046.633024,2026-01-23 15:50:46.633,469,5,1,1,0,0,514,1020,443,1,0,0
1769151046.634024,2026-01-23 15:50:46.634,470,6,1,1,0,0,512,1020,441,1,0,0
1769151046.635024,2026-01-23 15:50:46.635,471,7,1,1,0,0,512,1020,442,1,0,0
1769151046.636024,2026-01-23 15:50:46.636,472,8,1,1,0,0,513,1020,445,1,0,0
1769151046.637024,2026-01-23 15:50:46.637,473,9,1,1,0,0,512,1020,453,2,0,0
1769151046.638024,2026-01-23 15:50:46.638,474,10,1,1,0,0,512,1020,462,2,0,0
1769151046.639024,2026-01-23 15:50:46.639,475,11,1,1,0,0,512,1020,474,2,0,0
1769151046.640024,2026-01-23 15:50:46.640,476,12,1,1,0,0,509,1020,486,2,0,0
1769151046.641024,2026-01-23 15:50:46.641,477,13,1,1,0,0,510,1020,500,2,0,0
1769151046.642024,2026-01-23 15:50:46.642,478,14,1,1,0,0,510,1020,513,2,0,0
1769151046.643024,2026-01-23 15:50:46.643,479,15,1,1,0,0,509,1020,524,2,0,0
1769151046.644024,2026-01-23 15:50:46.644,480,0,1,1,0,0,510,1020,534,2,0,0
1769151046.645024,2026-01-23 15:50:46.645,481,1,1,1,0,0,509,1020,543,2,0,0
1769151046.646024,2026-01-23 15:50:46.646,482,2,1,1,0,0,512,1020,553,3,0,0
1769151046.647024,2026-01-23 15:50:46.647,483,3,1,1,0,0,512,1020,561,3,0,0
1769151046.648024,2026-01-23 15:50:46.648,484,4,1,1,0,0,511,1020,570,3,0,0
1769151046.649024,2026-01-23 15:50:46.649,485,5,1,1,0,0,512,1020,578,3,0,0
1769151046.650024,2026-01-23 15:50:46.650,486,6,1,1,0,0,512,1020,587,3,0,0
1769151046.651024,2026-01-23 15:50:46.651,487,7,1,1,0,0,514,1020,596,3,0,0
1769151046.652024,2026-01-23 15:50:46.652,488,8,1,1,0,0,511,1020,606,3,0,0
1769151046.653024,2026-01-23 15:50:46.653,489,9,1,1,0,0,513,1020,615,3,0,0
1769151046.654024,2026-01-23 15:50:46.654,490,10,1,1,0,0,511,1020,623,3,0,0
1769151046.655024,2026-01-23 15:50:46.655,491,11,1,1,0,0,512,1020,630,3,0,0
1769151046.656024,2026-01-23 15:50:46.656,492,12,1,1,0,0,510,1020,636,3,0,0
1769151046.657024,2026-01-23 15:50:46.657,493,13,1,1,0,0,510,1020,639,3,0,0
1769151046.658024,2026-01-23 15:50:46.658,494,14,1,1,0,0,510,1020,642,3,0,0
1769151046.659024,2026-01-23 15:50:46.659,495,15,1,1,0,0,512,1020,644,3,0,0
1769151046.660024,2026-01-23 15:50:46.660,496,0,1,1,0,0,511,1020,646,3,0,0
1769151046.661024,2026-01-23 15:50:46.661,497,1,1,1,0,0,511,1020,644,3,0,0
1769151046.662024,2026-01-23 15:50:46.662,498,2,1,1,0,0,510,1020,641,3,0,0
1769151046.663024,2026-01-23 15:50:46.663,499,3,1,1,0,0,512,1020,636,3,0,0
1769151046.664024,2026-01-23 15:50:46.664,500,4,1,1,0,0,511,1020,630,3,0,0
1769151046.665024,2026-01-23 15:50:46.665,501,5,1,1,0,0,512,1020,624,3,0,0
1769151046.666024,2026-01-23 15:50:46.666,502,6,1,1,0,0,511,1020,617,3,0,0
1769151046.667024,2026-01-23 15:50:46.667,503,7,1,1,0,0,509,1020,610,3,0,0
1769151046.668024,2026-01-23 15:50:46.668,504,8,1,1,0,0,515,1020,602,3,0,0
1769151046.669024,2026-01-23 15:50:46.669,505,9,1,1,0,0,512,1020,595,3,0,0
1769151046.670024,2026-01-23 15:50:46.670,506,10,1,1,0,0,513,1020,589,3,0,0
1769151046.671024,2026-01-23 15:50:46.671,507,11,1,1,0,0,513,1020,583,3,0,0
1769151046.672024,2026-01-23 15:50:46.672,508,12,1,1,0,0,513,1020,577,3,0,0
1769151046.673024,2026-01-23 15:50:46.673,509,13,1,1,0,0,510,1020,572,3,0,0
1769151046.674024,2026-01-23 15:50:46.674,510,14,1,1,0,0,510,1020,569,3,0,0
1769151046.675024,2026-01-23 15:50:46.675,511,15,1,1,0,0,509,1020,567,3,0,0
1769151046.676024,2026-01-23 15:50:46.676,512,0,1,1,0,0,511,1020,564,3,0,0
1769151046.677024,2026-01-23 15:50:46.677,513,1,1,1,0,0,512,1020,561,3,0,0
1769151046.678024,2026-01-23 15:50:46.678,514,2,1,1,0,0,513,1020,556,3,0,0
1769151046.679024,2026-01-23 15:50:46.679,515,3,1,1,0,0,513,1020,549,3,0,0
1769151046.680024,2026-01-23 15:50:46.680,516,4,1,1,0,0,510,1020,542,2,0,0
1769151046.681024,2026-01-23 15:50:46.681,517,5,1,1,0,0,513,1020,534,2,0,0
1769151046.682024,2026-01-23 15:50:46.682,518,6,1,1,0,0,512,1020,526,2,0,0
1769151046.683024,2026-01-23 15:50:46.683,519,7,1,1,0,0,511,1020,519,2,0,0
1769151046.684024,2026-01-23 15:50:46.684,520,8,1,1,0,0,511,1020,514,2,0,0
1769151046.685024,2026-01-23 15:50:46.685,521,9,1,1,0,0,512,1020,509,2,0,0
1769151046.686024,2026-01-23 15:50:46.686,522,10,1,1,0,0,512,1020,505,2,0,0
1769151046.687024,2026-01-23 15:50:46.687,523,11,1,1,0,0,513,1020,501,2,0,0
1769151046.688024,2026-01-23 15:50:46.688,524,12,1,1,0,0,514,1020,497,2,0,0
1769151046.689024,2026-01-23 15:50:46.689,525,13,1,1,0,0,511,1020,493,2,0,0
1769151046.690024,2026-01-23 15:50:46.690,526,14,1,1,0,0,511,1020,490,2,0,0
1769151046.691024,2026-01-23 15:50:46.691,527,15,1,1,0,0,511,1020,487,2,0,0
1769151046.692024,2026-01-23 15:50:46.692,528,0,1,1,0,0,511,1020,484,2,0,0
1769151046.693024,2026-01-23 15:50:46.693,529,1,1,1,0,0,511,1020,481,2,0,0
1769151046.694024,2026-01-23 15:50:46.694,530,2,1,1,0,0,511,1020,478,2,0,0
1769151046.695024,2026-01-23 15:50:46.695,531,3,1,1,0,0,509,1020,475,2,0,0
1769151046.696024,2026-01-23 15:50:46.696,532,4,1,1,0,0,510,1020,473,2,0,0
1769151046.697024,2026-01-23 15:50:46.697,533,5,1,1,0,0,511,1020,471,2,0,0
1769151046.698024,2026-01-23 15:50:46.698,534,6,1,1,0,0,512,1020,470,2,0,0
1769151046.699024,2026-01-23 15:50:46.699,535,7,1,1,0,0,512,1020,468,2,0,0
1769151046.700024,2026-01-23 15:50:46.700,536,8,1,1,0,0,511,1020,467,2,0,0
1769151046.701024,2026-01-23 15:50:46.701,537,9,1,1,0,0,513,1020,467,2,0,0
1769151046.702024,2026-01-23 15:50:46.702,538,10,1,1,0,0,511,1020,466,2,0,0
1769151046.703024,2026-01-23 15:50:46.703,539,11,1,1,0,0,512,1020,466,2,0,0
1769151046.704024,2026-01-23 15:50:46.704,540,12,1,1,0,0,513,1020,466,2,0,0
1769151046.705024,2026-01-23 15:50:46.705,541,13,1,1,0,0,512,1020,466,2,0,0
1769151046.706024,2026-01-23 15:50:46.706,542,14,1,1,0,0,512,1020,467,2,0,0
1769151046.707024,2026-01-23 15:50:46.707,543,15,1,1,0,0,509,1020,467,2,0,0
1769151046.708024,2026-01-23 15:50:46.708,544,0,1,1,0,0,511,1020,466,2,0,0
1769151046.709024,2026-01-23 15:50:46.709,545,1,1,1,0,0,512,1020,466,2,0,0
1769151046.710024,2026-01-23 15:50:46.710,546,2,1,1,0,0,512,1020,466,2,0,0
1769151046.711024,2026-01-23 15:50:46.711,547,3,1,1,0,0,513,1020,465,2,0,0
1769151046.712024,2026-01-23 15:50:46.712,548,4,1,1,0,0,510,1020,464,2,0,0
1769151046.713024,2026-01-23 15:50:46.713,549,5,1,1,0,0,508,1020,463,2,0,0
1769151046.714024,2026-01-23 15:50:46.714,550,6,1,1,0,0,508,1020,463,2,0,0
1769151046.715024,2026-01-23 15:50:46.715,551,7,1,1,0,0,510,1020,463,2,0,0
1769151046.716024,2026-01-23 15:50:46.716,552,8,1,1,0,0,515,1020,463,2,0,0
1769151046.717024,2026-01-23 15:50:46.717,553,9,1,1,0,0,512,1020,463,2,0,0
1769151046.718024,2026-01-23 15:50:46.718,554,10,1,1,0,0,511,1020,464,2,0,0
1769151046.719024,2026-01-23 15:50:46.719,555,11,1,1,0,0,512,1020,464,2,0,0
1769151046.720024,2026-01-23 15:50:46.720,556,12,1,1,0,0,511,1020,465,2,0,0
1769151046.721024,2026-01-23 15:50:46.721,557,13,1,1,0,0,511,1020,467,2,0,0
1769151046.722024,2026-01-23 15:50:46.722,558,14,1,1,0,0,512,1020,467,2,0,0
1769151046.723024,2026-01-23 15:50:46.723,559,15,1,1,0,0,514,1020,467,2,0,0
1769151046.724024,2026-01-23 15:50:46.724,560,0,1,1,0,0,513,1020,467,2,0,0
1769151046.725024,2026-01-23 15:50:46.725,561,1,1,1,0,0,510,1020,467,2,0,0
1769151046.726024,2026-01-23 15:50:46.726,562,2,1,1,0,0,508,1020,467,2,0,0
1769151046.727024,2026-01-23 15:50:46.727,563,3,1,1,0,0,511,1020,467,2,0,0
1769151046.728024,2026-01-23 15:50:46.728,564,4,1,1,0,0,511,1020,466,2,0,0
1769151046.729024,2026-01-23 15:50:46.729,565,5,1,1,0,0,510,1020,465,2,0,0
1769151046.730024,2026-01-23 15:50:46.730,566,6,1,1,0,0,510,1020,465,2,0,0
1769151046.731024,2026-01-23 15:50:46.731,567,7,1,1,0,0,509,1020,464,2,0,0
1769151046.732024,2026-01-23 15:50:46.732,568,8,1,1,0,0,511,1020,465,2,0,0
1769151046.733024,2026-01-23 15:50:46.733,569,9,1,1,0,0,512,1020,465,2,0,0
1769151046.734024,2026-01-23 15:50:46.734,570,10,1,1,0,0,512,1020,466,2,0,0
1769151046.735024,2026-01-23 15:50:46.735,571,11,1,1,0,0,513,1020,467,2,0,0
1769151046.736024,2026-01-23 15:50:46.736,572,12,1,1,0,0,512,1020,468,2,0,0
1769151046.737024,2026-01-23 15:50:46.737,573,13,1,1,0,0,513,1020,470,2,0,0
1769151046.738024,2026-01-23 15:50:46.738,574,14,1,1,0,0,510,1020,471,2,0,0
1769151046.739024,2026-01-23 15:50:46.739,575,15,1,1,0,0,512,1020,471,2,0,0
1769151046.740024,2026-01-23 15:50:46.740,576,0,1,1,0,0,512,1020,472,2,0,0
1769151046.741024,2026-01-23 15:50:46.741,577,1,1,1,0,0,510,1020,471,2,0,0
1769151046.742024,2026-01-23 15:50:46.742,578,2,1,1,0,0,510,1020,471,2,0,0
1769151046.743024,2026-01-23 15:50:46.743,579,3,1,1,0,0,511,1020,470,2,0,0
1769151046.744024,2026-01-23 15:50:46.744,580,4,1,1,0,0,513,1020,470,2,0,0
1769151046.745024,2026-01-23 15:50:46.745,581,5,1,1,0,0,512,1020,469,2,0,0
1769151046.746024,2026-01-23 15:50:46.746,582,6,1,1,0,0,510,1020,469,2,0,0
1769151046.747024,2026-01-23 15:50:46.747,583,7,1,1,0,0,512,1020,468,2,0,0
1769151046.748024,2026-01-23 15:50:46.748,584,8,1,1,0,0,511,1020,468,2,0,0
1769151046.749024,2026-01-23 15:50:46.749,585,9,1,1,0,0,511,1020,469,2,0,0
1769151046.750024,2026-01-23 15:50:46.750,586,10,1,1,0,0,510,1020,469,2,0,0
1769151046.751024,2026-01-23 15:50:46.751,587,11,1,1,0,0,513,1020,469,2,0,0
1769151046.752024,2026-01-23 15:50:46.752,588,12,1,1,0,0,512,1020,471,2,0,0
1769151046.753024,2026-01-23 15:50:46.753,589,13,1,1,0,0,512,1020,472,2,0,0
1769151046.754024,2026-01-23 15:50:46.754,590,14,1,1,0,0,513,1020,473,2,0,0
1769151046.755024,2026-01-23 15:50:46.755,591,15,1,1,0,0,511,1020,473,2,0,0
1769151046.756024,2026-01-23 15:50:46.756,592,0,1,1,0,0,512,1020,474,2,0,0
1769151046.757024,2026-01-23 15:50:46.757,593,1,1,1,0,0,509,1020,474,2,0,0
1769151046.758024,2026-01-23 15:50:46.758,594,2,1,1,0,0,510,1020,474,2,0,0
1769151046.759024,2026-01-23 15:50:46.759,595,3,1,1,0,0,511,1020,475,2,0,0
1769151046.760024,2026-01-23 15:50:46.760,596,4,1,1,0,0,512,1020,474,2,0,0
1769151046.761024,2026-01-23 15:50:46.761,597,5,1,1,0,0,511,1020,474,2,0,0
1769151046.762024,2026-01-23 15:50:46.762,598,6,1,1,0,0,511,1020,474,2,0,0
1769151046.763024,2026-01-23 15:50:46.763,599,7,1,1,0,0,512,1020,474,2,0,0
1769151046.764024,2026-01-23 15:50:46.764,600,8,1,1,0,0,513,1020,474,2,0,0
1769151046.765024,2026-01-23 15:50:46.765,601,9,1,1,0,0,513,1020,474,2,0,0
1769151046.766024,2026-01-23 15:50:46.766,602,10,1,1,0,0,511,1020,474,2,0,0
1769151046.767024,2026-01-23 15:50:46.767,603,11,1,1,0,0,511,1020,474,2,0,0
1769151046.768024,2026-01-23 15:50:46.768,604,12,1,1,0,0,514,1020,475,2,0,0
1769151046.769024,2026-01-23 15:50:46.769,605,13,1,1,0,0,513,1020,476,2,0,0
1769151046.770024,2026-01-23 15:50:46.770,606,14,1,1,0,0,511,1020,476,2,0,0
1769151046.771024,2026-01-23 15:50:46.771,607,15,1,1,0,0,511,1020,477,2,0,0
1769151046.772024,2026-01-23 15:50:46.772,608,0,1,1,0,0,511,1020,478,2,0,0
1769151046.773024,2026-01-23 15:50:46.773,609,1,1,1,0,0,512,1020,479,2,0,0
1769151046.774024,2026-01-23 15:50:46.774,610,2,1,1,0,0,512,1020,478,2,0,0
1769151046.775024,2026-01-23 15:50:46.775,611,3,1,1,0,0,511,1020,479,2,0,0
1769151046.776024,2026-01-23 15:50:46.776,612,4,1,1,0,0,510,1020,479,2,0,0
1769151046.777024,2026-01-23 15:50:46.777,613,5,1,1,0,0,509,1020,479,2,0,0
1769151046.778024,2026-01-23 15:50:46.778,614,6,1,1,0,0,509,1020,479,2,0,0
1769151046.779024,2026-01-23 15:50:46.779,615,7,1,1,0,0,512,1020,479,2,0,0
1769151046.780024,2026-01-23 15:50:46.780,616,8,1,1,0,0,512,1020,478,2,0,0
1769151046.781024,2026-01-23 15:50:46.781,617,9,1,1,0,0,514,1020,479,2,0,0
1769151046.782024,2026-01-23 15:50:46.782,618,10,1,1,0,0,511,1020,478,2,0,0
1769151046.783024,2026-01-23 15:50:46.783,619,11,1,1,0,0,514,1020,478,2,0,0
1769151046.784024,2026-01-23 15:50:46.784,620,12,1,1,0,0,511,1020,478,2,0,0
1769151046.785024,2026-01-23 15:50:46.785,621,13,1,1,0,0,511,1020,479,2,0,0
1769151046.786024,2026-01-23 15:50:46.786,622,14,1,1,0,0,512,1020,480,2,0,0
1769151046.787024,2026-01-23 15:50:46.787,623,15,1,1,0,0,514,1020,481,2,0,0
1769151046.788024,2026-01-23 15:50:46.788,624,0,1,1,0,0,511,1020,482,2,0,0
1769151046.789024,2026-01-23 15:50:46.789,625,1,1,1,0,0,513,1020,482,2,0,0
1769151046.790024,2026-01-23 15:50:46.790,626,2,1,1,0,0,511,1020,483,2,0,0
1769151046.791024,2026-01-23 15:50:46.791,627,3,1,1,0,0,509,1020,483,2,0,0
1769151046.792024,2026-01-23 15:50:46.792,628,4,1,1,0,0,509,1020,484,2,0,0
1769151046.793024,2026-01-23 15:50:46.793,629,5,1,1,0,0,510,1020,484,2,0,0
1769151046.794024,2026-01-23 15:50:46.794,630,6,1,1,0,0,512,1020,484,2,0,0
1769151046.795024,2026-01-23 15:50:46.795,631,7,1,1,0,0,513,1020,483,2,0,0
1769151046.796024,2026-01-23 15:50:46.796,632,8,1,1,0,0,512,1020,483,2,0,0
1769151046.797024,2026-01-23 15:50:46.797,633,9,1,1,0,0,511,1020,483,2,0,0
1769151046.798024,2026-01-23 15:50:46.798,634,10,1,1,0,0,511,1020,483,2,0,0
1769151046.799024,2026-01-23 15:50:46.799,635,11,1,1,0,0,513,1020,483,2,0,0
1769151046.800024,2026-01-23 15:50:46.800,636,12,1,1,0,0,512,1020,483,2,0,0
1769151046.801024,2026-01-23 15:50:46.801,637,13,1,1,0,0,513,1020,483,2,0,0
1769151046.802024,2026-01-23 15:50:46.802,638,14,1,1,0,0,512,1020,484,2,0,0
1769151046.803024,2026-01-23 15:50:46.803,639,15,1,1,0,0,510,1020,485,2,0,0
1769151046.804024,2026-01-23 15:50:46.804,640,0,1,1,0,0,511,1020,486,2,0,0
1769151046.805024,2026-01-23 15:50:46.805,641,1,1,1,0,0,512,1020,486,2,0,0
1769151046.806024,2026-01-23 15:50:46.806,642,2,1,1,0,0,511,1020,487,2,0,0
1769151046.807024,2026-01-23 15:50:46.807,643,3,1,1,0,0,511,1020,486,2,0,0
1769151046.808024,2026-01-23 15:50:46.808,644,4,1,1,0,0,510,1020,486,2,0,0
1769151046.809024,2026-01-23 15:50:46.809,645,5,1,1,0,0,511,1020,487,2,0,0
1769151046.810024,2026-01-23 15:50:46.810,646,6,1,1,0,0,508,1020,486,2,0,0
1769151046.811024,2026-01-23 15:50:46.811,647,7,1,1,0,0,512,1020,486,2,0,0
1769151046.812024,2026-01-23 15:50:46.812,648,8,1,1,0,0,511,1020,486,2,0,0
1769151046.813024,2026-01-23 15:50:46.813,649,9,1,1,0,0,510,1020,485,2,0,0
1769151046.814024,2026-01-23 15:50:46.814,650,10,1,1,0,0,512,1020,484,2,0,0
1769151046.815024,2026-01-23 15:50:46.815,651,11,1,1,0,0,511,1020,484,2,0,0
1769151046.816024,2026-01-23 15:50:46.816,652,12,1,1,0,0,512,1020,484,2,0,0
1769151046.817024,2026-01-23 15:50:46.817,653,13,1,1,0,0,512,1020,484,2,0,0
1769151046.818024,2026-01-23 15:50:46.818,654,14,1,1,0,0,513,1020,485,2,0,0
1769151046.819024,2026-01-23 15:50:46.819,655,15,1,1,0,0,510,1020,487,2,0,0
1769151046.820024,2026-01-23 15:50:46.820,656,0,1,1,0,0,510,1020,487,2,0,0
1769151046.821024,2026-01-23 15:50:46.821,657,1,1,1,0,0,510,1020,488,2,0,0
1769151046.822024,2026-01-23 15:50:46.822,658,2,1,1,0,0,508,1020,489,2,0,0
1769151046.823024,2026-01-23 15:50:46.823,659,3,1,1,0,0,509,1020,489,2,0,0
1769151046.824024,2026-01-23 15:50:46.824,660,4,1,1,0,0,512,1020,489,2,0,0
1769151046.825024,2026-01-23 15:50:46.825,661,5,1,1,0,0,512,1020,489,2,0,0
1769151046.826024,2026-01-23 15:50:46.826,662,6,1,1,0,0,514,1020,489,2,0,0
1769151046.827024,2026-01-23 15:50:46.827,663,7,1,1,0,0,513,1020,489,2,0,0
1769151046.828024,2026-01-23 15:50:46.828,664,8,1,1,0,0,512,1020,489,2,0,0
1769151046.829024,2026-01-23 15:50:46.829,665,9,1,1,0,0,511,1020,488,2,0,0
1769151046.830024,2026-01-23 15:50:46.830,666,10,1,1,0,0,512,1020,487,2,0,0
1769151046.831024,2026-01-23 15:50:46.831,667,11,1,1,0,0,511,1020,487,2,0,0
1769151046.832024,2026-01-23 15:50:46.832,668,12,1,1,0,0,511,1020,487,2,0,0
1769151046.833024,2026-01-23 15:50:46.833,669,13,1,1,0,0,511,1020,487,2,0,0
1769151046.834024,2026-01-23 15:50:46.834,670,14,1,1,0,0,512,1020,488,2,0,0
1769151046.835024,2026-01-23 15:50:46.835,671,15,1,1,0,0,512,1020,489,2,0,0
1769151046.836024,2026-01-23 15:50:46.836,672,0,1,1,0,0,514,1020,490,2,0,0
1769151046.837024,2026-01-23 15:50:46.837,673,1,1,1,0,0,514,1020,491,2,0,0
1769151046.838024,2026-01-23 15:50:46.838,674,2,1,1,0,0,511,1020,491,2,0,0
1769151046.839024,2026-01-23 15:50:46.839,675,3,1,1,0,0,513,1020,492,2,0,0
1769151046.840024,2026-01-23 15:50:46.840,676,4,1,1,0,0,511,1020,492,2,0,0
1769151046.841024,2026-01-23 15:50:46.841,677,5,1,1,0,0,511,1020,492,2,0,0
1769151046.842024,2026-01-23 15:50:46.842,678,6,1,1,0,0,511,1020,492,2,0,0
1769151046.843024,2026-01-23 15:50:46.843,679,7,1,1,0,0,508,1020,492,2,0,0
1769151046.844024,2026-01-23 15:50:46.844,680,8,1,1,0,0,511,1020,492,2,0,0
1769151046.845024,2026-01-23 15:50:46.845,681,9,1,1,0,0,511,1020,492,2,0,0
1769151046.846024,2026-01-23 15:50:46.846,682,10,1,1,0,0,510,1020,492,2,0,0
1769151046.847024,2026-01-23 15:50:46.847,683,11,1,1,0,0,510,1020,491,2,0,0
1769151046.848024,2026-01-23 15:50:46.848,684,12,1,1,0,0,511,1020,491,2,0,0
1769151046.849024,2026-01-23 15:50:46.849,685,13,1,1,0,0,511,1020,491,2,0,0
1769151046.850024,2026-01-23 15:50:46.850,686,14,1,1,0,0,512,1020,491,2,0,0
1769151046.851024,2026-01-23 15:50:46.851,687,15,1,1,0,0,512,1020,492,2,0,0
1769151046.852024,2026-01-23 15:50:46.852,688,0,1,1,0,0,513,1020,492,2,0,0
1769151046.853024,2026-01-23 15:50:46.853,689,1,1,1,0,0,514,1020,494,2,0,0
1769151046.854024,2026-01-23 15:50:46.854,690,2,1,1,0,0,511,1020,495,2,0,0
1769151046.855024,2026-01-23 15:50:46.855,691,3,1,1,0,0,510,1020,496,2,0,0
1769151046.856024,2026-01-23 15:50:46.856,692,4,1,1,0,0,511,1020,496,2,0,0
1769151046.857024,2026-01-23 15:50:46.857,693,5,1,1,0,0,512,1020,497,2,0,0
1769151046.858024,2026-01-23 15:50:46.858,694,6,1,1,0,0,512,1020,497,2,0,0
1769151046.859024,2026-01-23 15:50:46.859,695,7,1,1,0,0,510,1020,497,2,0,0
1769151046.860024,2026-01-23 15:50:46.860,696,8,1,1,0,0,511,1020,497,2,0,0
1769151046.861024,2026-01-23 15:50:46.861,697,9,1,1,0,0,507,1020,497,2,0,0
1769151046.862024,2026-01-23 15:50:46.862,698,10,1,1,0,0,509,1020,497,2,0,0
1769151046.863024,2026-01-23 15:50:46.863,699,11,1,1,0,0,512,1020,497,2,0,0
1769151046.864024,2026-01-23 15:50:46.864,700,12,1,1,0,0,512,1020,497,2,0,0
1769151046.865024,2026-01-23 15:50:46.865,701,13,1,1,0,0,515,1020,496,2,0,0
1769151046.866024,2026-01-23 15:50:46.866,702,14,1,1,0,0,514,1020,497,2,0,0
1769151046.867024,2026-01-23 15:50:46.867,703,15,1,1,0,0,515,1020,498,2,0,0
1769151046.868024,2026-01-23 15:50:46.868,704,0,1,1,0,0,513,1020,499,2,0,0
1769151046.869024,2026-01-23 15:50:46.869,705,1,1,1,0,0,511,1020,499,2,0,0
1769151046.870024,2026-01-23 15:50:46.870,706,2,1,1,0,0,512,1020,500,2,0,0
1769151046.871024,2026-01-23 15:50:46.871,707,3,1,1,0,0,511,1020,502,2,0,0
1769151046.872024,2026-01-23 15:50:46.872,708,4,1,1,0,0,510,1020,503,2,0,0
1769151046.873024,2026-01-23 15:50:46.873,709,5,1,1,0,0,512,1020,503,2,0,0
1769151046.874024,2026-01-23 15:50:46.874,710,6,1,1,0,0,511,1020,504,2,0,0
1769151046.875024,2026-01-23 15:50:46.875,711,7,1,1,0,0,510,1020,504,2,0,0
1769151046.876024,2026-01-23 15:50:46.876,712,8,1,1,0,0,511,1020,504,2,0,0
1769151046.877024,2026-01-23 15:50:46.877,713,9,1,1,0,0,511,1020,504,2,0,0
1769151046.878024,2026-01-23 15:50:46.878,714,10,1,1,0,0,510,1020,504,2,0,0
1769151046.879024,2026-01-23 15:50:46.879,715,11,1,1,0,0,509,1020,503,2,0,0
1769151046.880024,2026-01-23 15:50:46.880,716,12,1,1,0,0,512,1020,503,2,0,0
1769151046.881024,2026-01-23 15:50:46.881,717,13,1,1,0,0,512,1020,503,2,0,0
1769151046.882024,2026-01-23 15:50:46.882,718,14,1,1,0,0,513,1020,502,2,0,0
1769151046.883024,2026-01-23 15:50:46.883,719,15,1,1,0,0,512,1020,503,2,0,0
1769151046.884024,2026-01-23 15:50:46.884,720,0,1,1,0,0,512,1020,504,2,0,0
1769151046.885024,2026-01-23 15:50:46.885,721,1,1,1,0,0,513,1020,504,2,0,0
1769151046.886024,2026-01-23 15:50:46.886,722,2,1,1,0,0,511,1020,505,2,0,0
1769151046.887024,2026-01-23 15:50:46.887,723,3,1,1,0,0,512,1020,506,2,0,0
1769151046.888024,2026-01-23 15:50:46.888,724,4,1,1,0,0,511,1020,508,2,0,0
1769151046.889024,2026-01-23 15:50:46.889,725,5,1,1,0,0,509,1020,508,2,0,0
1769151046.890024,2026-01-23 15:50:46.890,726,6,1,1,0,0,511,1020,509,2,0,0
1769151046.891024,2026-01-23 15:50:46.891,727,7,1,1,0,0,510,1020,509,2,0,0
1769151046.892024,2026-01-23 15:50:46.892,728,8,1,1,0,0,514,1020,509,2,0,0
1769151046.893024,2026-01-23 15:50:46.893,729,9,1,1,0,0,511,1020,508,2,0,0
1769151046.894024,2026-01-23 15:50:46.894,730,10,1,1,0,0,511,1020,509,2,0,0
1769151046.895024,2026-01-23 15:50:46.895,731,11,1,1,0,0,513,1020,509,2,0,0
1769151046.896024,2026-01-23 15:50:46.896,732,12,1,1,0,0,512,1020,509,2,0,0
1769151046.897024,2026-01-23 15:50:46.897,733,13,1,1,0,0,511,1020,508,2,0,0
1769151046.898024,2026-01-23 15:50:46.898,734,14,1,1,0,0,512,1020,508,2,0,0
1769151046.899024,2026-01-23 15:50:46.899,735,15,1,1,0,0,511,1020,508,2,0,0
1769151046.900024,2026-01-23 15:50:46.900,736,0,1,1,0,0,508,1020,508,2,0,0
1769151046.901024,2026-01-23 15:50:46.901,737,1,1,1,0,0,508,1020,508,2,0,0
1769151046.902024,2026-01-23 15:50:46.902,738,2,1,1,0,0,510,1020,510,2,0,0
1769151046.903024,2026-01-23 15:50:46.903,739,3,1,1,0,0,511,1020,511,2,0,0
1769151046.904024,2026-01-23 15:50:46.904,740,4,1,1,0,0,513,1020,512,2,0,0
1769151046.905024,2026-01-23 15:50:46.905,741,5,1,1,0,0,513,1020,512,2,0,0
1769151046.906024,2026-01-23 15:50:46.906,742,6,1,1,0,0,512,1020,513,2,0,0
1769151046.907024,2026-01-23 15:50:46.907,743,7,1,1,0,0,513,1020,513,2,0,0
1769151046.908024,2026-01-23 15:50:46.908,744,8,1,1,0,0,512,1020,514,2,0,0
1769151046.909024,2026-01-23 15:50:46.909,745,9,1,1,0,0,511,1020,513,2,0,0
1769151046.910024,2026-01-23 15:50:46.910,746,10,1,1,0,0,511,1020,513,2,0,0
1769151046.911024,2026-01-23 15:50:46.911,747,11,1,1,0,0,512,1020,513,2,0,0
1769151046.912024,2026-01-23 15:50:46.912,748,12,1,1,0,0,510,1020,512,2,0,0
1769151046.913024,2026-01-23 15:50:46.913,749,13,1,1,0,0,512,1020,512,2,0,0
1769151046.914024,2026-01-23 15:50:46.914,750,14,1,1,0,0,511,1020,511,2,0,0
1769151046.915024,2026-01-23 15:50:46.915,751,15,1,1,0,0,511,1020,511,2,0,0
1769151046.916024,2026-01-23 15:50:46.916,752,0,1,1,0,0,510,1020,511,2,0,0
1769151046.917024,2026-01-23 15:50:46.917,753,1,1,1,0,0,510,1020,510,2,0,0
1769151046.918024,2026-01-23 15:50:46.918,754,2,1,1,0,0,513,1020,511,2,0,0
1769151046.919024,2026-01-23 15:50:46.919,755,3,1,1,0,0,512,1020,511,2,0,0
1769151046.920024,2026-01-23 15:50:46.920,756,4,1,1,0,0,512,1020,512,2,0,0
1769151046.921024,2026-01-23 15:50:46.921,757,5,1,1,0,0,513,1020,512,2,0,0
1769151046.922024,2026-01-23 15:50:46.922,758,6,1,1,0,0,511,1020,514,2,0,0
1769151046.923024,2026-01-23 15:50:46.923,759,7,1,1,0,0,510,1020,515,2,0,0
1769151046.924024,2026-01-23 15:50:46.924,760,8,1,1,0,0,511,1020,515,2,0,0
1769151046.925024,2026-01-23 15:50:46.925,761,9,1,1,0,0,510,1020,515,2,0,0
1769151046.926024,2026-01-23 15:50:46.926,762,10,1,1,0,0,509,1020,515,2,0,0
1769151046.927024,2026-01-23 15:50:46.927,763,11,1,1,0,0,510,1020,515,2,0,0
1769151046.928024,2026-01-23 15:50:46.928,764,12,1,1,0,0,510,1020,515,2,0,0
1769151046.929024,2026-01-23 15:50:46.929,765,13,1,1,0,0,509,1020,515,2,0,0
1769151046.930024,2026-01-23 15:50:46.930,766,14,1,1,0,0,511,1020,514,2,0,0
1769151046.931024,2026-01-23 15:50:46.931,767,15,1,1,0,0,512,1020,514,2,0,0
1769151046.932024,2026-01-23 15:50:46.932,768,0,1,1,0,0,513,1020,514,2,0,0
1769151046.933024,2026-01-23 15:50:46.933,769,1,1,1,0,0,512,1020,514,2,0,0
1769151046.934024,2026-01-23 15:50:46.934,770,2,1,1,0,0,514,1020,515,2,0,0
1769151046.935024,2026-01-23 15:50:46.935,771,3,1,1,0,0,512,1020,516,2,0,0
1769151046.936024,2026-01-23 15:50:46.936,772,4,1,1,0,0,512,1020,517,2,0,0
1769151046.937024,2026-01-23 15:50:46.937,773,5,1,1,0,0,511,1020,519,2,0,0
1769151046.938024,2026-01-23 15:50:46.938,774,6,1,1,0,0,513,1020,520,2,0,0
1769151046.939024,2026-01-23 15:50:46.939,775,7,1,1,0,0,511,1020,521,2,0,0
1769151046.940024,2026-01-23 15:50:46.940,776,8,1,1,0,0,515,1020,522,2,0,0
1769151046.941024,2026-01-23 15:50:46.941,777,9,1,1,0,0,513,1020,523,2,0,0
1769151046.942024,2026-01-23 15:50:46.942,778,10,1,1,0,0,511,1020,524,2,0,0
1769151046.943024,2026-01-23 15:50:46.943,779,11,1,1,0,0,512,1020,523,2,0,0
1769151046.944024,2026-01-23 15:50:46.944,780,12,1,1,0,0,511,1020,523,2,0,0
1769151046.945024,2026-01-23 15:50:46.945,781,13,1,1,0,0,511,1020,524,2,0,0
1769151046.946024,2026-01-23 15:50:46.946,782,14,1,1,0,0,511,1020,524,2,0,0
1769151046.947024,2026-01-23 15:50:46.947,783,15,1,1,0,0,508,1020,524,2,0,0
1769151046.948024,2026-01-23 15:50:46.948,784,0,1,1,0,0,511,1020,523,2,0,0
1769151046.949024,2026-01-23 15:50:46.949,785,1,1,1,0,0,513,1020,524,2,0,0
1769151046.950024,2026-01-23 15:50:46.950,786,2,1,1,0,0,515,1020,524,2,0,0
1769151046.951024,2026-01-23 15:50:46.951,787,3,1,1,0,0,514,1020,525,2,0,0
1769151046.952024,2026-01-23 15:50:46.952,788,4,1,1,0,0,514,1020,526,2,0,0
1769151046.953024,2026-01-23 15:50:46.953,789,5,1,1,0,0,511,1020,528,2,0,0
1769151046.954024,2026-01-23 15:50:46.954,790,6,1,1,0,0,512,1020,529,2,0,0
1769151046.955024,2026-01-23 15:50:46.955,791,7,1,1,0,0,512,1020,529,2,0,0
1769151046.956024,2026-01-23 15:50:46.956,792,8,1,1,0,0,513,1020,529,2,0,0
1769151046.957024,2026-01-23 15:50:46.957,793,9,1,1,0,0,513,1020,529,2,0,0
1769151046.958024,2026-01-23 15:50:46.958,794,10,1,1,0,0,510,1020,530,2,0,0
1769151046.959024,2026-01-23 15:50:46.959,795,11,1,1,0,0,511,1020,530,2,0,0
1769151046.960024,2026-01-23 15:50:46.960,796,12,1,1,0,0,509,1020,529,2,0,0
1769151046.961024,2026-01-23 15:50:46.961,797,13,1,1,0,0,510,1020,529,2,0,0
1769151046.962024,2026-01-23 15:50:46.962,798,14,1,1,0,0,508,1020,529,2,0,0
1769151046.963024,2026-01-23 15:50:46.963,799,15,1,1,0,0,510,1020,529,2,0,0
1769151046.964024,2026-01-23 15:50:46.964,800,0,1,1,0,0,510,1020,528,2,0,0
1769151046.965024,2026-01-23 15:50:46.965,801,1,1,1,0,0,511,1020,528,2,0,0
1769151046.966024,2026-01-23 15:50:46.966,802,2,1,1,0,0,514,1020,527,2,0,0
1769151046.967024,2026-01-23 15:50:46.967,803,3,1,1,0,0,514,1020,528,2,0,0
1769151046.968024,2026-01-23 15:50:46.968,804,4,1,1,0,0,515,1020,528,2,0,0
1769151046.969024,2026-01-23 15:50:46.969,805,5,1,1,0,0,513,1020,529,2,0,0
1769151046.970024,2026-01-23 15:50:46.970,806,6,1,1,0,0,511,1020,531,2,0,0
1769151046.971024,2026-01-23 15:50:46.971,807,7,1,1,0,0,511,1020,531,2,0,0
1769151046.972024,2026-01-23 15:50:46.972,808,8,1,1,0,0,512,1020,532,2,0,0
1769151046.973024,2026-01-23 15:50:46.973,809,9,1,1,0,0,511,1020,532,2,0,0
1769151046.974024,2026-01-23 15:50:46.974,810,10,1,1,0,0,510,1020,533,2,0,0
1769151046.975024,2026-01-23 15:50:46.975,811,11,1,1,0,0,512,1020,533,2,0,0
1769151046.976024,2026-01-23 15:50:46.976,812,12,1,1,0,0,512,1020,532,2,0,0
1769151046.977024,2026-01-23 15:50:46.977,813,13,1,1,0,0,511,1020,531,2,0,0
1769151046.978024,2026-01-23 15:50:46.978,814,14,1,1,0,0,510,1020,531,2,0,0
1769151046.979024,2026-01-23 15:50:46.979,815,15,1,1,0,0,510,1020,530,2,0,0
1769151046.980024,2026-01-23 15:50:46.980,816,0,1,1,0,0,510,1020,529,2,0,0
1769151046.981024,2026-01-23 15:50:46.981,817,1,1,1,0,0,509,1020,529,2,0,0
1769151046.982024,2026-01-23 15:50:46.982,818,2,1,1,0,0,511,1020,528,2,0,0
1769151046.983024,2026-01-23 15:50:46.983,819,3,1,1,0,0,514,1020,528,2,0,0
1769151046.984024,2026-01-23 15:50:46.984,820,4,1,1,0,0,512,1020,529,2,0,0
1769151046.985024,2026-01-23 15:50:46.985,821,5,1,1,0,0,514,1020,530,2,0,0
1769151046.986024,2026-01-23 15:50:46.986,822,6,1,1,0,0,510,1020,530,2,0,0
1769151046.987024,2026-01-23 15:50:46.987,823,7,1,1,0,0,512,1020,530,2,0,0
1769151046.988024,2026-01-23 15:50:46.988,824,8,1,1,0,0,513,1020,531,2,0,0
1769151046.989024,2026-01-23 15:50:46.989,825,9,1,1,0,0,512,1020,531,2,0,0
1769151046.990024,2026-01-23 15:50:46.990,826,10,1,1,0,0,511,1020,531,2,0,0
1769151046.991024,2026-01-23 15:50:46.991,827,11,1,1,0,0,508,1020,530,2,0,0
1769151046.992024,2026-01-23 15:50:46.992,828,12,1,1,0,0,510,1020,529,2,0,0
1769151046.993024,2026-01-23 15:50:46.993,829,13,1,1,0,0,511,1020,529,2,0,0
1769151046.994024,2026-01-23 15:50:46.994,830,14,1,1,0,0,512,1020,528,2,0,0
1769151046.995024,2026-01-23 15:50:46.995,831,15,1,1,0,0,510,1020,528,2,0,0
1769151046.996024,2026-01-23 15:50:46.996,832,0,1,1,0,0,512,1020,527,2,0,0
1769151046.997024,2026-01-23 15:50:46.997,833,1,1,1,0,0,513,1020,526,2,0,0
1769151046.998024,2026-01-23 15:50:46.998,834,2,1,1,0,0,512,1020,525,2,0,0
1769151046.999024,2026-01-23 15:50:46.999,835,3,1,1,0,0,511,1020,525,2,0,0
1769151047.000024,2026-01-23 15:50:47.000,836,4,1,1,0,0,511,1020,526,2,0,0
1769151047.001024,2026-01-23 15:50:47.001,837,5,1,1,0,0,511,1020,526,2,0,0
1769151047.002024,2026-01-23 15:50:47.002,838,6,1,1,0,0,509,1020,527,2,0,0
1769151047.003024,2026-01-23 15:50:47.003,839,7,1,1,0,0,512,1020,527,2,0,0
1769151047.004024,2026-01-23 15:50:47.004,840,8,1,1,0,0,512,1020,527,2,0,0
1769151047.005024,2026-01-23 15:50:47.005,841,9,1,1,0,0,513,1020,528,2,0,0
1769151047.006024,2026-01-23 15:50:47.006,842,10,1,1,0,0,513,1020,528,2,0,0
1769151047.007024,2026-01-23 15:50:47.007,843,11,1,1,0,0,512,1020,528,2,0,0
1769151047.008024,2026-01-23 15:50:47.008,844,12,1,1,0,0,512,1020,528,2,0,0
1769151047.009024,2026-01-23 15:50:47.009,845,13,1,1,0,0,513,1020,528,2,0,0
1769151047.010024,2026-01-23 15:50:47.010,846,14,1,1,0,0,512,1020,527,2,0,0
1769151047.011024,2026-01-23 15:50:47.011,847,15,1,1,0,0,510,1020,527,2,0,0
1769151047.012024,2026-01-23 15:50:47.012,848,0,1,1,0,0,508,1020,526,2,0,0
1769151047.013024,2026-01-23 15:50:47.013,849,1,1,1,0,0,511,1020,525,2,0,0
1769151047.014024,2026-01-23 15:50:47.014,850,2,1,1,0,0,512,1020,524,2,0,0
1769151047.015024,2026-01-23 15:50:47.015,851,3,1,1,0,0,511,1020,524,2,0,0
1769151047.016024,2026-01-23 15:50:47.016,852,4,1,1,0,0,513,1020,523,2,0,0
1769151047.017024,2026-01-23 15:50:47.017,853,5,1,1,0,0,512,1020,523,2,0,0
1769151047.018024,2026-01-23 15:50:47.018,854,6,1,1,0,0,514,1020,523,2,0,0
1769151047.019024,2026-01-23 15:50:47.019,855,7,1,1,0,0,512,1020,523,2,0,0
1769151047.020024,2026-01-23 15:50:47.020,856,8,1,1,0,0,510,1020,524,2,0,0
1769151047.021024,2026-01-23 15:50:47.021,857,9,1,1,0,0,511,1020,525,2,0,0
1769151047.022024,2026-01-23 15:50:47.022,858,10,1,1,0,0,508,1020,526,2,0,0
1769151047.023024,2026-01-23 15:50:47.023,859,11,1,1,0,0,512,1020,525,2,0,0
1769151047.024024,2026-01-23 15:50:47.024,860,12,1,1,0,0,511,1020,525,2,0,0
1769151047.025024,2026-01-23 15:50:47.025,861,13,1,1,0,0,511,1020,524,2,0,0
1769151047.026024,2026-01-23 15:50:47.026,862,14,1,1,0,0,511,1020,524,2,0,0
1769151047.027024,2026-01-23 15:50:47.027,863,15,1,1,0,0,512,1020,523,2,0,0
1769151047.028024,2026-01-23 15:50:47.028,864,0,1,1,0,0,512,1020,523,2,0,0
1769151047.029024,2026-01-23 15:50:47.029,865,1,1,1,0,0,512,1020,521,2,0,0
1769151047.030024,2026-01-23 15:50:47.030,866,2,1,1,0,0,513,1020,520,2,0,0
1769151047.031024,2026-01-23 15:50:47.031,867,3,1,1,0,0,513,1020,519,2,0,0
1769151047.032024,2026-01-23 15:50:47.032,868,4,1,1,0,0,512,1020,519,2,0,0
1769151047.033024,2026-01-23 15:50:47.033,869,5,1,1,0,0,511,1020,519,2,0,0
1769151047.034024,2026-01-23 15:50:47.034,870,6,1,1,0,0,511,1020,519,2,0,0
1769151047.035024,2026-01-23 15:50:47.035,871,7,1,1,0,0,513,1020,520,2,0,0
1769151047.036024,2026-01-23 15:50:47.036,872,8,1,1,0,0,510,1020,519,2,0,0
1769151047.037024,2026-01-23 15:50:47.037,873,9,1,1,0,0,511,1020,521,2,0,0
1769151047.038024,2026-01-23 15:50:47.038,874,10,1,1,0,0,511,1020,521,2,0,0
1769151047.039024,2026-01-23 15:50:47.039,875,11,1,1,0,0,509,1020,521,2,0,0
1769151047.040024,2026-01-23 15:50:47.040,876,12,1,1,0,0,511,1020,521,2,0,0
1769151047.041024,2026-01-23 15:50:47.041,877,13,1,1,0,0,513,1020,521,2,0,0
1769151047.042024,2026-01-23 15:50:47.042,878,14,1,1,0,0,512,1020,520,2,0,0
1769151047.043024,2026-01-23 15:50:47.043,879,15,1,1,0,0,508,1020,519,2,0,0
1769151047.044024,2026-01-23 15:50:47.044,880,0,1,1,0,0,510,1020,519,2,0,0
1769151047.045024,2026-01-23 15:50:47.045,881,1,1,1,0,0,511,1020,518,2,0,0
1769151047.046024,2026-01-23 15:50:47.046,882,2,1,1,0,0,511,1020,517,2,0,0
1769151047.047024,2026-01-23 15:50:47.047,883,3,1,1,0,0,509,1020,516,2,0,0
1769151047.048024,2026-01-23 15:50:47.048,884,4,1,1,0,0,511,1020,515,2,0,0
1769151047.049024,2026-01-23 15:50:47.049,885,5,1,1,0,0,510,1020,515,2,0,0
1769151047.050024,2026-01-23 15:50:47.050,886,6,1,1,0,0,512,1020,515,2,0,0
1769151047.051024,2026-01-23 15:50:47.051,887,7,1,1,0,0,514,1020,516,2,0,0
1769151047.052024,2026-01-23 15:50:47.052,888,8,1,1,0,0,515,1020,517,2,0,0
1769151047.053024,2026-01-23 15:50:47.053,889,9,1,1,0,0,513,1020,518,2,0,0
1769151047.054024,2026-01-23 15:50:47.054,890,10,1,1,0,0,508,1020,518,2,0,0
1769151047.055024,2026-01-23 15:50:47.055,891,11,1,1,0,0,509,1020,519,2,0,0
1769151047.056024,2026-01-23 15:50:47.056,892,12,1,1,0,0,511,1020,519,2,0,0
1769151047.057024,2026-01-23 15:50:47.057,893,13,1,1,0,0,511,1020,519,2,0,0
1769151047.058024,2026-01-23 15:50:47.058,894,14,1,1,0,0,509,1020,519,2,0,0
1769151047.059024,2026-01-23 15:50:47.059,895,15,1,1,0,0,511,1020,519,2,0,0
1769151047.060024,2026-01-23 15:50:47.060,896,0,1,1,0,0,512,1020,518,2,0,0
1769151047.061024,2026-01-23 15:50:47.061,897,1,1,1,0,0,512,1020,517,2,0,0
1769151047.062024,2026-01-23 15:50:47.062,898,2,1,1,0,0,513,1020,517,2,0,0
1769151047.063024,2026-01-23 15:50:47.063,899,3,1,1,0,0,511,1020,516,2,0,0
1769151047.064024,2026-01-23 15:50:47.064,900,4,1,1,0,0,514,1020,515,2,0,0
1769151047.065024,2026-01-23 15:50:47.065,901,5,1,1,0,0,511,1020,515,2,0,0
1769151047.066024,2026-01-23 15:50:47.066,902,6,1,1,0,0,511,1020,515,2,0,0
1769151047.067024,2026-01-23 15:50:47.067,903,7,1,1,0,0,512,1020,515,2,0,0
1769151047.068024,2026-01-23 15:50:47.068,904,8,1,1,0,0,511,1020,515,2,0,0
1769151047.069024,2026-01-23 15:50:47.069,905,9,1,1,0,0,512,1020,516,2,0,0
1769151047.070024,2026-01-23 15:50:47.070,906,10,1,1,0,0,514,1020,517,2,0,0
1769151047.071024,2026-01-23 15:50:47.071,907,11,1,1,0,0,513,1020,518,2,0,0
1769151047.072024,2026-01-23 15:50:47.072,908,12,1,1,0,0,511,1020,518,2,0,0
1769151047.073024,2026-01-23 15:50:47.073,909,13,1,1,0,0,509,1020,518,2,0,0
1769151047.074024,2026-01-23 15:50:47.074,910,14,1,1,0,0,511,1020,519,2,0,0
1769151047.075024,2026-01-23 15:50:47.075,911,15,1,1,0,0,512,1020,518,2,0,0
1769151047.076024,2026-01-23 15:50:47.076,912,0,1,1,0,0,512,1020,518,2,0,0
1769151047.077024,2026-01-23 15:50:47.077,913,1,1,1,0,0,511,1020,517,2,0,0
1769151047.078024,2026-01-23 15:50:47.078,914,2,1,1,0,0,511,1020,516,2,0,0
1769151047.079024,2026-01-23 15:50:47.079,915,3,1,1,0,0,511,1020,515,2,0,0
1769151047.080024,2026-01-23 15:50:47.080,916,4,1,1,0,0,508,1020,515,2,0,0
1769151047.081024,2026-01-23 15:50:47.081,917,5,1,1,0,0,509,1020,515,2,0,0
1769151047.082024,2026-01-23 15:50:47.082,918,6,1,1,0,0,512,1020,515,2,0,0
1769151047.083024,2026-01-23 15:50:47.083,919,7,1,1,0,0,512,1020,515,2,0,0
1769151047.084024,2026-01-23 15:50:47.084,920,8,1,1,0,0,515,1020,515,2,0,0
1769151047.085024,2026-01-23 15:50:47.085,921,9,1,1,0,0,513,1020,515,2,0,0
1769151047.086024,2026-01-23 15:50:47.086,922,10,1,1,0,0,513,1020,516,2,0,0
1769151047.087024,2026-01-23 15:50:47.087,923,11,1,1,0,0,512,1020,517,2,0,0
1769151047.088024,2026-01-23 15:50:47.088,924,12,1,1,0,0,512,1020,518,2,0,0
1769151047.089024,2026-01-23 15:50:47.089,925,13,1,1,0,0,509,1020,518,2,0,0
1769151047.090024,2026-01-23 15:50:47.090,926,14,1,1,0,0,509,1020,518,2,0,0
1769151047.091024,2026-01-23 15:50:47.091,927,15,1,1,0,0,512,1020,518,2,0,0
1769151047.092024,2026-01-23 15:50:47.092,928,0,1,1,0,0,510,1020,518,2,0,0
1769151047.093024,2026-01-23 15:50:47.093,929,1,1,1,0,0,510,1020,517,2,0,0
1769151047.094024,2026-01-23 15:50:47.094,930,2,1,1,0,0,510,1020,517,2,0,0
1769151047.095024,2026-01-23 15:50:47.095,931,3,1,1,0,0,511,1020,516,2,0,0
1769151047.096024,2026-01-23 15:50:47.096,932,4,1,1,0,0,511,1020,516,2,0,0
1769151047.097024,2026-01-23 15:50:47.097,933,5,1,1,0,0,512,1020,515,2,0,0
1769151047.098024,2026-01-23 15:50:47.098,934,6,1,1,0,0,510,1020,515,2,0,0
1769151047.099024,2026-01-23 15:50:47.099,935,7,1,1,0,0,513,1020,515,2,0,0
1769151047.100024,2026-01-23 15:50:47.100,936,8,1,1,0,0,513,1020,515,2,0,0
1769151047.101024,2026-01-23 15:50:47.101,937,9,1,1,0,0,512,1020,515,2,0,0
1769151047.102024,2026-01-23 15:50:47.102,938,10,1,1,0,0,513,1020,516,2,0,0
1769151047.103024,2026-01-23 15:50:47.103,939,11,1,1,0,0,512,1020,517,2,0,0
1769151047.104024,2026-01-23 15:50:47.104,940,12,1,1,0,0,512,1020,518,2,0,0
1769151047.105024,2026-01-23 15:50:47.105,941,13,1,1,0,0,512,1020,518,2,0,0
1769151047.106024,2026-01-23 15:50:47.106,942,14,1,1,0,0,511,1020,518,2,0,0
1769151047.107024,2026-01-23 15:50:47.107,943,15,1,1,0,0,511,1020,518,2,0,0
1769151047.108024,2026-01-23 15:50:47.108,944,0,1,1,0,0,510,1020,518,2,0,0
1769151047.109024,2026-01-23 15:50:47.109,945,1,1,1,0,0,510,1020,518,2,0,0
1769151047.110024,2026-01-23 15:50:47.110,946,2,1,1,0,0,512,1020,516,2,0,0
1769151047.111024,2026-01-23 15:50:47.111,947,3,1,1,0,0,512,1020,515,2,0,0
1769151047.112024,2026-01-23 15:50:47.112,948,4,1,1,0,0,510,1020,515,2,0,0
1769151047.113024,2026-01-23 15:50:47.113,949,5,1,1,0,0,510,1020,514,2,0,0
1769151047.114024,2026-01-23 15:50:47.114,950,6,1,1,0,0,510,1020,514,2,0,0
1769151047.115024,2026-01-23 15:50:47.115,951,7,1,1,0,0,511,1020,513,2,0,0
1769151047.116024,2026-01-23 15:50:47.116,952,8,1,1,0,0,513,1020,513,2,0,0
1769151047.117024,2026-01-23 15:50:47.117,953,9,1,1,0,0,512,1020,513,2,0,0
1769151047.118024,2026-01-23 15:50:47.118,954,10,1,1,0,0,513,1020,513,2,0,0
1769151047.119024,2026-01-23 15:50:47.119,955,11,1,1,0,0,512,1020,514,2,0,0
1769151047.120024,2026-01-23 15:50:47.120,956,12,1,1,0,0,511,1020,515,2,0,0
1769151047.121024,2026-01-23 15:50:47.121,957,13,1,1,0,0,512,1020,516,2,0,0
1769151047.122024,2026-01-23 15:50:47.122,958,14,1,1,0,0,513,1020,516,2,0,0
1769151047.123024,2026-01-23 15:50:47.123,959,15,1,1,0,0,511,1020,517,2,0,0
1769151047.124024,2026-01-23 15:50:47.124,960,0,1,1,0,0,510,1020,517,2,0,0
1769151047.125024,2026-01-23 15:50:47.125,961,1,1,1,0,0,510,1020,516,2,0,0
1769151047.126024,2026-01-23 15:50:47.126,962,2,1,1,0,0,509,1020,516,2,0,0
1769151047.127024,2026-01-23 15:50:47.127,963,3,1,1,0,0,511,1020,516,2,0,0
1769151047.128024,2026-01-23 15:50:47.128,964,4,1,1,0,0,512,1020,516,2,0,0
1769151047.129024,2026-01-23 15:50:47.129,965,5,1,1,0,0,512,1020,515,2,0,0
1769151047.130024,2026-01-23 15:50:47.130,966,6,1,1,0,0,511,1020,515,2,0,0
1769151047.131024,2026-01-23 15:50:47.131,967,7,1,1,0,0,510,1020,513,2,0,0
1769151047.132024,2026-01-23 15:50:47.132,968,8,1,1,0,0,512,1020,512,2,0,0
1769151047.133024,2026-01-23 15:50:47.133,969,9,1,1,0,0,511,1020,513,2,0,0
1769151047.134024,2026-01-23 15:50:47.134,970,10,1,1,0,0,511,1020,513,2,0,0
1769151047.135024,2026-01-23 15:50:47.135,971,11,1,1,0,0,511,1020,513,2,0,0
1769151047.136024,2026-01-23 15:50:47.136,972,12,1,1,0,0,514,1020,514,2,0,0
1769151047.137024,2026-01-23 15:50:47.137,973,13,1,1,0,0,514,1020,516,2,0,0
1769151047.138024,2026-01-23 15:50:47.138,974,14,1,1,0,0,512,1020,516,2,0,0
1769151047.139024,2026-01-23 15:50:47.139,975,15,1,1,0,0,513,1020,517,2,0,0
1769151047.140024,2026-01-23 15:50:47.140,976,0,1,1,0,0,510,1020,517,2,0,0
1769151047.141024,2026-01-23 15:50:47.141,977,1,1,1,0,0,510,1020,516,2,0,0
1769151047.142024,2026-01-23 15:50:47.142,978,2,1,1,0,0,510,1020,516,2,0,0
1769151047.143024,2026-01-23 15:50:47.143,979,3,1,1,0,0,510,1020,516,2,0,0
1769151047.144024,2026-01-23 15:50:47.144,980,4,1,1,0,0,512,1020,516,2,0,0
1769151047.145024,2026-01-23 15:50:47.145,981,5,1,1,0,0,513,1020,515,2,0,0
1769151047.146024,2026-01-23 15:50:47.146,982,6,1,1,0,0,510,1020,515,2,0,0
1769151047.147024,2026-01-23 15:50:47.147,983,7,1,1,0,0,511,1020,514,2,0,0
1769151047.148024,2026-01-23 15:50:47.148,984,8,1,1,0,0,509,1020,514,2,0,0
1769151047.149024,2026-01-23 15:50:47.149,985,9,1,1,0,0,511,1020,514,2,0,0
1769151047.150024,2026-01-23 15:50:47.150,986,10,1,1,0,0,512,1020,514,2,0,0
1769151047.151024,2026-01-23 15:50:47.151,987,11,1,1,0,0,512,1020,514,2,0,0
1769151047.152024,2026-01-23 15:50:47.152,988,12,1,1,0,0,513,1020,515,2,0,0
1769151047.153024,2026-01-23 15:50:47.153,989,13,1,1,0,0,514,1020,515,2,0,0
1769151047.154024,2026-01-23 15:50:47.154,990,14,1,1,0,0,515,1020,516,2,0,0
1769151047.155024,2026-01-23 15:50:47.155,991,15,1,1,0,0,512,1020,516,2,0,0
1769151047.156024,2026-01-23 15:50:47.156,992,0,1,1,0,0,510,1020,517,2,0,0
1769151047.157024,2026-01-23 15:50:47.157,993,1,1,1,0,0,512,1020,516,2,0,0
1769151047.158024,2026-01-23 15:50:47.158,994,2,1,1,0,0,512,1020,516,2,0,0
1769151047.159024,2026-01-23 15:50:47.159,995,3,1,1,0,0,511,1020,516,2,0,0
1769151047.160024,2026-01-23 15:50:47.160,996,4,1,1,0,0,509,1020,515,2,0,0
1769151047.161024,2026-01-23 15:50:47.161,997,5,1,1,0,0,508,1020,515,2,0,0
1769151047.162024,2026-01-23 15:50:47.162,998,6,1,1,0,0,510,1020,514,2,0,0
1769151047.163024,2026-01-23 15:50:47.163,999,7,1,1,0,0,510,1020,513,2,0,0
1769151047.164024,2026-01-23 15:50:47.164,1000,8,1,1,0,0,512,1020,513,2,0,0
1769151047.165024,2026-01-23 15:50:47.165,1001,9,1,1,0,0,512,1020,513,2,0,0
1769151047.166024,2026-01-23 15:50:47.166,1002,10,1,1,0,0,512,1020,512,2,0,0
1769151047.167024,2026-01-23 15:50:47.167,1003,11,1,1,0,0,511,1020,513,2,0,0
1769151047.168024,2026-01-23 15:50:47.168,1004,12,1,1,0,0,514,1020,513,2,0,0
1769151047.169024,2026-01-23 15:50:47.169,1005,13,1,1,0,0,512,1020,514,2,0,0
1769151047.170024,2026-01-23 15:50:47.170,1006,14,1,1,0,0,512,1020,515,2,0,0
1769151047.171024,2026-01-23 15:50:47.171,1007,15,1,1,0,0,512,1020,515,2,0,0
1769151047.172024,2026-01-23 15:50:47.172,1008,0,1,1,0,0,512,1020,515,2,0,0
1769151047.173024,2026-01-23 15:50:47.173,1009,1,1,1,0,0,512,1020,515,2,0,0
1769151047.174024,2026-01-23 15:50:47.174,1010,2,1,1,0,0,512,1020,515,2,0,0
1769151047.175024,2026-01-23 15:50:47.175,1011,3,1,1,0,0,513,1020,515,2,0,0
1769151047.176024,2026-01-23 15:50:47.176,1012,4,1,1,0,0,512,1020,515,2,0,0
1769151047.177024,2026-01-23 15:50:47.177,1013,5,1,1,0,0,511,1020,514,2,0,0
1769151047.178024,2026-01-23 15:50:47.178,1014,6,1,1,0,0,510,1020,514,2,0,0
1769151047.179024,2026-01-23 15:50:47.179,1015,7,1,1,0,0,510,1020,513,2,0,0
1769151047.180024,2026-01-23 15:50:47.180,1016,8,1,1,0,0,511,1020,513,2,0,0
1769151047.181024,2026-01-23 15:50:47.181,1017,9,1,1,0,0,512,1020,512,2,0,0
1769151047.182024,2026-01-23 15:50:47.182,1018,10,1,1,0,0,512,1020,511,2,0,0
1769151047.183024,2026-01-23 15:50:47.183,1019,11,1,1,0,0,512,1020,511,2,0,0
1769151047.184024,2026-01-23 15:50:47.184,1020,12,1,1,0,0,512,1020,512,2,0,0
1769151047.185024,2026-01-23 15:50:47.185,1021,13,1,1,0,0,510,1020,512,2,0,0
1769151047.186024,2026-01-23 15:50:47.186,1022,14,1,1,0,0,512,1020,513,2,0,0
1769151047.187024,2026-01-23 15:50:47.187,1023,15,1,1,0,0,512,1020,513,2,0,0
1769151047.188024,2026-01-23 15:50:47.188,1024,0,1,1,0,0,511,1020,514,2,0,0
1769151047.189024,2026-01-23 15:50:47.189,1025,1,1,1,0,0,512,1020,514,2,0,0
1769151047.190024,2026-01-23 15:50:47.190,1026,2,1,1,0,0,513,1020,514,2,0,0
1769151047.191024,2026-01-23 15:50:47.191,1027,3,1,1,0,0,512,1020,513,2,0,0
1769151047.192024,2026-01-23 15:50:47.192,1028,4,1,1,0,0,512,1020,513,2,0,0
1769151047.193024,2026-01-23 15:50:47.193,1029,5,1,1,0,0,511,1020,513,2,0,0
1769151047.194024,2026-01-23 15:50:47.194,1030,6,1,1,0,0,509,1020,513,2,0,0
1769151047.195024,2026-01-23 15:50:47.195,1031,7,1,1,0,0,512,1020,512,2,0,0
1769151047.196024,2026-01-23 15:50:47.196,1032,8,1,1,0,0,512,1020,512,2,0,0
1769151047.197024,2026-01-23 15:50:47.197,1033,9,1,1,0,0,511,1020,511,2,0,0
1769151047.198024,2026-01-23 15:50:47.198,1034,10,1,1,0,0,511,1020,511,2,0,0
1769151047.199024,2026-01-23 15:50:47.199,1035,11,1,1,0,0,512,1020,510,2,0,0
1769151047.200024,2026-01-23 15:50:47.200,1036,12,1,1,0,0,512,1020,510,2,0,0
1769151047.201024,2026-01-23 15:50:47.201,1037,13,1,1,0,0,511,1020,511,2,0,0
1769151047.202024,2026-01-23 15:50:47.202,1038,14,1,1,0,0,510,1020,512,2,0,0
1769151047.203024,2026-01-23 15:50:47.203,1039,15,1,1,0,0,510,1020,512,2,0,0
1769151047.204024,2026-01-23 15:50:47.204,1040,0,1,1,0,0,513,1020,513,2,0,0
1769151047.205024,2026-01-23 15:50:47.205,1041,1,1,1,0,0,511,1020,514,2,0,0
1769151047.206024,2026-01-23 15:50:47.206,1042,2,1,1,0,0,510,1020,514,2,0,0
1769151047.207024,2026-01-23 15:50:47.207,1043,3,1,1,0,0,509,1020,514,2,0,0
1769151047.208024,2026-01-23 15:50:47.208,1044,4,1,1,0,0,514,1020,513,2,0,0
1769151047.209024,2026-01-23 15:50:47.209,1045,5,1,1,0,0,511,1020,513,2,0,0
1769151047.210024,2026-01-23 15:50:47.210,1046,6,1,1,0,0,511,1020,513,2,0,0
1769151047.211024,2026-01-23 15:50:47.211,1047,7,1,1,0,0,512,1020,512,2,0,0
1769151047.212024,2026-01-23 15:50:47.212,1048,8,1,1,0,0,510,1020,512,2,0,0
1769151047.213024,2026-01-23 15:50:47.213,1049,9,1,1,0,0,512,1020,511,2,0,0
1769151047.214024,2026-01-23 15:50:47.214,1050,10,1,1,0,0,512,1020,510,2,0,0
1769151047.215024,2026-01-23 15:50:47.215,1051,11,1,1,0,0,512,1020,509,2,0,0
1769151047.216024,2026-01-23 15:50:47.216,1052,12,1,1,0,0,512,1020,509,2,0,0
1769151047.217024,2026-01-23 15:50:47.217,1053,13,1,1,0,0,511,1020,509,2,0,0
1769151047.218024,2026-01-23 15:50:47.218,1054,14,1,1,0,0,514,1020,510,2,0,0
1769151047.219024,2026-01-23 15:50:47.219,1055,15,1,1,0,0,513,1020,511,2,0,0
1769151047.220024,2026-01-23 15:50:47.220,1056,0,1,1,0,0,514,1020,511,2,0,0
1769151047.221024,2026-01-23 15:50:47.221,1057,1,1,1,0,0,512,1020,512,2,0,0
1769151047.222024,2026-01-23 15:50:47.222,1058,2,1,1,0,0,512,1020,513,2,0,0
1769151047.223024,2026-01-23 15:50:47.223,1059,3,1,1,0,0,511,1020,513,2,0,0
1769151047.224024,2026-01-23 15:50:47.224,1060,4,1,1,0,0,508,1020,513,2,0,0
1769151047.225024,2026-01-23 15:50:47.225,1061,5,1,1,0,0,508,1020,513,2,0,0
1769151047.226024,2026-01-23 15:50:47.226,1062,6,1,1,0,0,511,1020,512,2,0,0
1769151047.227024,2026-01-23 15:50:47.227,1063,7,1,1,0,0,510,1020,511,2,0,0
1769151047.228024,2026-01-23 15:50:47.228,1064,8,1,1,0,0,511,1020,510,2,0,0
1769151047.229024,2026-01-23 15:50:47.229,1065,9,1,1,0,0,510,1020,510,2,0,0
1769151047.230024,2026-01-23 15:50:47.230,1066,10,1,1,0,0,511,1020,510,2,0,0
1769151047.231024,2026-01-23 15:50:47.231,1067,11,1,1,0,0,512,1020,510,2,0,0
1769151047.232024,2026-01-23 15:50:47.232,1068,12,1,1,0,0,512,1020,509,2,0,0
1769151047.233024,2026-01-23 15:50:47.233,1069,13,1,1,0,0,514,1020,510,2,0,0
1769151047.234024,2026-01-23 15:50:47.234,1070,14,1,1,0,0,515,1020,510,2,0,0
1769151047.235024,2026-01-23 15:50:47.235,1071,15,1,1,0,0,512,1020,511,2,0,0
1769151047.236024,2026-01-23 15:50:47.236,1072,0,1,1,0,0,511,1020,511,2,0,0
1769151047.237024,2026-01-23 15:50:47.237,1073,1,1,1,0,0,512,1020,512,2,0,0
1769151047.238024,2026-01-23 15:50:47.238,1074,2,1,1,0,0,513,1020,513,2,0,0
1769151047.239024,2026-01-23 15:50:47.239,1075,3,1,1,0,0,513,1020,513,2,0,0
1769151047.240024,2026-01-23 15:50:47.240,1076,4,1,1,0,0,513,1020,514,2,0,0
1769151047.241024,2026-01-23 15:50:47.241,1077,5,1,1,0,0,508,1020,513,2,0,0
1769151047.242024,2026-01-23 15:50:47.242,1078,6,1,1,0,0,510,1020,513,2,0,0
1769151047.243024,2026-01-23 15:50:47.243,1079,7,1,1,0,0,511,1020,512,2,0,0
1769151047.244024,2026-01-23 15:50:47.244,1080,8,1,1,0,0,511,1020,512,2,0,0
1769151047.245024,2026-01-23 15:50:47.245,1081,9,1,1,0,0,510,1020,511,2,0,0
1769151047.246024,2026-01-23 15:50:47.246,1082,10,1,1,0,0,511,1020,511,2,0,0
1769151047.247024,2026-01-23 15:50:47.247,1083,11,1,1,0,0,510,1020,510,2,0,0
1769151047.248024,2026-01-23 15:50:47.248,1084,12,1,1,0,0,510,1020,509,2,0,0
1769151047.249024,2026-01-23 15:50:47.249,1085,13,1,1,0,0,513,1020,509,2,0,0
1769151047.250024,2026-01-23 15:50:47.250,1086,14,1,1,0,0,512,1020,509,2,0,0
1769151047.251024,2026-01-23 15:50:47.251,1087,15,1,1,0,0,515,1020,509,2,0,0
1769151047.252024,2026-01-23 15:50:47.252,1088,0,1,1,0,0,512,1020,510,2,0,0
1769151047.253024,2026-01-23 15:50:47.253,1089,1,1,1,0,0,511,1020,510,2,0,0
1769151047.254024,2026-01-23 15:50:47.254,1090,2,1,1,0,0,512,1020,511,2,0,0
1769151047.255024,2026-01-23 15:50:47.255,1091,3,1,1,0,0,512,1020,512,2,0,0
1769151047.256024,2026-01-23 15:50:47.256,1092,4,1,1,0,0,511,1020,512,2,0,0
1769151047.257024,2026-01-23 15:50:47.257,1093,5,1,1,0,0,511,1020,513,2,0,0
1769151047.258024,2026-01-23 15:50:47.258,1094,6,1,1,0,0,511,1020,513,2,0,0
1769151047.259024,2026-01-23 15:50:47.259,1095,7,1,1,0,0,511,1020,513,2,0,0
1769151047.260024,2026-01-23 15:50:47.260,1096,8,1,1,0,0,510,1020,512,2,0,0
1769151047.261024,2026-01-23 15:50:47.261,1097,9,1,1,0,0,508,1020,512,2,0,0
1769151047.262024,2026-01-23 15:50:47.262,1098,10,1,1,0,0,511,1020,511,2,0,0
1769151047.263024,2026-01-23 15:50:47.263,1099,11,1,1,0,0,512,1020,510,2,0,0
1769151047.264024,2026-01-23 15:50:47.264,1100,12,1,1,0,0,508,1020,509,2,0,0
1769151047.265024,2026-01-23 15:50:47.265,1101,13,1,1,0,0,512,1020,508,2,0,0
1769151047.266024,2026-01-23 15:50:47.266,1102,14,1,1,0,0,511,1020,508,2,0,0
1769151047.267024,2026-01-23 15:50:47.267,1103,15,1,1,0,0,512,1020,508,2,0,0
1769151047.268024,2026-01-23 15:50:47.268,1104,0,1,1,0,0,513,1020,508,2,0,0
1769151047.269024,2026-01-23 15:50:47.269,1105,1,1,1,0,0,510,1020,509,2,0,0
1769151047.270024,2026-01-23 15:50:47.270,1106,2,1,1,0,0,513,1020,510,2,0,0
1769151047.271024,2026-01-23 15:50:47.271,1107,3,1,1,0,0,514,1020,510,2,0,0
1769151047.272024,2026-01-23 15:50:47.272,1108,4,1,1,0,0,511,1020,511,2,0,0
1769151047.273024,2026-01-23 15:50:47.273,1109,5,1,1,0,0,512,1020,511,2,0,0
1769151047.274024,2026-01-23 15:50:47.274,1110,6,1,1,0,0,515,1020,511,2,0,0
1769151047.275024,2026-01-23 15:50:47.275,1111,7,1,1,0,0,511,1020,510,2,0,0
1769151047.276024,2026-01-23 15:50:47.276,1112,8,1,1,0,0,511,1020,510,2,0,0
1769151047.277024,2026-01-23 15:50:47.277,1113,9,1,1,0,0,509,1020,509,2,0,0
1769151047.278024,2026-01-23 15:50:47.278,1114,10,1,1,0,0,510,1020,508,2,0,0
1769151047.279024,2026-01-23 15:50:47.279,1115,11,1,1,0,0,510,1020,508,2,0,0
1769151047.280024,2026-01-23 15:50:47.280,1116,12,1,1,0,0,511,1020,508,2,0,0
1769151047.281024,2026-01-23 15:50:47.281,1117,13,1,1,0,0,510,1020,507,2,0,0
1769151047.282024,2026-01-23 15:50:47.282,1118,14,1,1,0,0,509,1020,506,2,0,0
1769151047.283024,2026-01-23 15:50:47.283,1119,15,1,1,0,0,513,1020,505,2,0,0
1769151047.284024,2026-01-23 15:50:47.284,1120,0,1,1,0,0,512,1020,505,2,0,0
1769151047.285024,2026-01-23 15:50:47.285,1121,1,1,1,0,0,513,1020,505,2,0,0
1769151047.286024,2026-01-23 15:50:47.286,1122,2,1,1,0,0,514,1020,505,2,0,0
1769151047.287024,2026-01-23 15:50:47.287,1123,3,1,1,0,0,511,1020,505,2,0,0
1769151047.288024,2026-01-23 15:50:47.288,1124,4,1,1,0,0,511,1020,505,2,0,0
1769151047.289024,2026-01-23 15:50:47.289,1125,5,1,1,0,0,510,1020,506,2,0,0
1769151047.290024,2026-01-23 15:50:47.290,1126,6,1,1,0,0,513,1020,507,2,0,0
1769151047.291024,2026-01-23 15:50:47.291,1127,7,1,1,0,0,512,1020,507,2,0,0
1769151047.292024,2026-01-23 15:50:47.292,1128,8,1,1,0,0,515,1020,506,2,0,0
1769151047.293024,2026-01-23 15:50:47.293,1129,9,1,1,0,0,515,1020,506,2,0,0
1769151047.294024,2026-01-23 15:50:47.294,1130,10,1,1,0,0,511,1020,505,2,0,0
1769151047.295024,2026-01-23 15:50:47.295,1131,11,1,1,0,0,509,1020,505,2,0,0
1769151047.296024,2026-01-23 15:50:47.296,1132,12,1,1,0,0,508,1020,505,2,0,0
1769151047.297024,2026-01-23 15:50:47.297,1133,13,1,1,0,0,510,1020,505,2,0,0
1769151047.298024,2026-01-23 15:50:47.298,1134,14,1,1,0,0,511,1020,505,2,0,0
1769151047.299024,2026-01-23 15:50:47.299,1135,15,1,1,0,0,512,1020,505,2,0,0
1769151047.300024,2026-01-23 15:50:47.300,1136,0,1,1,0,0,512,1020,506,2,0,0
1769151047.301024,2026-01-23 15:50:47.301,1137,1,1,1,0,0,511,1020,507,2,0,0
1769151047.302024,2026-01-23 15:50:47.302,1138,2,1,1,0,0,511,1020,508,2,0,0
1769151047.303024,2026-01-23 15:50:47.303,1139,3,1,1,0,0,512,1020,509,2,0,0
1769151047.304024,2026-01-23 15:50:47.304,1140,4,1,1,0,0,513,1020,510,2,0,0
1769151047.305024,2026-01-23 15:50:47.305,1141,5,1,1,0,0,512,1020,511,2,0,0
1769151047.306024,2026-01-23 15:50:47.306,1142,6,1,1,0,0,512,1020,511,2,0,0
1769151047.307024,2026-01-23 15:50:47.307,1143,7,1,1,0,0,511,1020,512,2,0,0
1769151047.308024,2026-01-23 15:50:47.308,1144,8,1,1,0,0,511,1020,512,2,0,0
1769151047.309024,2026-01-23 15:50:47.309,1145,9,1,1,0,0,508,1020,511,2,0,0
1769151047.310024,2026-01-23 15:50:47.310,1146,10,1,1,0,0,511,1020,510,2,0,0
1769151047.311024,2026-01-23 15:50:47.311,1147,11,1,1,0,0,509,1020,509,2,0,0
1769151047.312024,2026-01-23 15:50:47.312,1148,12,1,1,0,0,511,1020,507,2,0,0
1769151047.313024,2026-01-23 15:50:47.313,1149,13,1,1,0,0,512,1020,505,2,0,0
1769151047.314024,2026-01-23 15:50:47.314,1150,14,1,1,0,0,511,1020,504,2,0,0
1769151047.315024,2026-01-23 15:50:47.315,1151,15,1,1,0,0,511,1020,503,2,0,0
1769151047.316024,2026-01-23 15:50:47.316,1152,0,1,1,0,0,511,1020,502,2,0,0
1769151047.317024,2026-01-23 15:50:47.317,1153,1,1,1,0,0,511,1020,500,2,0,0
1769151047.318024,2026-01-23 15:50:47.318,1154,2,1,1,0,0,511,1020,500,2,0,0
1769151047.319024,2026-01-23 15:50:47.319,1155,3,1,1,0,0,512,1020,500,2,0,0
1769151047.320024,2026-01-23 15:50:47.320,1156,4,1,1,0,0,512,1020,500,2,0,0
1769151047.321024,2026-01-23 15:50:47.321,1157,5,1,1,0,0,511,1020,502,2,0,0
1769151047.322024,2026-01-23 15:50:47.322,1158,6,1,1,0,0,510,1020,502,2,0,0
1769151047.323024,2026-01-23 15:50:47.323,1159,7,1,1,0,0,512,1020,503,2,0,0
1769151047.324024,2026-01-23 15:50:47.324,1160,8,1,1,0,0,510,1020,504,2,0,0
1769151047.325024,2026-01-23 15:50:47.325,1161,9,1,1,0,0,512,1020,504,2,0,0
1769151047.326024,2026-01-23 15:50:47.326,1162,10,1,1,0,0,511,1020,504,2,0,0
1769151047.327024,2026-01-23 15:50:47.327,1163,11,1,1,0,0,511,1020,504,2,0,0
1769151047.328024,2026-01-23 15:50:47.328,1164,12,1,1,0,0,512,1020,505,2,0,0
1769151047.329024,2026-01-23 15:50:47.329,1165,13,1,1,0,0,511,1020,505,2,0,0
1769151047.330024,2026-01-23 15:50:47.330,1166,14,1,1,0,0,509,1020,506,2,0,0
1769151047.331024,2026-01-23 15:50:47.331,1167,15,1,1,0,0,513,1020,505,2,0,0
1769151047.332024,2026-01-23 15:50:47.332,1168,0,1,1,0,0,511,1020,506,2,0,0
1769151047.333024,2026-01-23 15:50:47.333,1169,1,1,1,0,0,512,1020,508,2,0,0
1769151047.334024,2026-01-23 15:50:47.334,1170,2,1,1,0,0,512,1020,508,2,0,0
1769151047.335024,2026-01-23 15:50:47.335,1171,3,1,1,0,0,512,1020,510,2,0,0
1769151047.336024,2026-01-23 15:50:47.336,1172,4,1,1,0,0,516,1020,511,2,0,0
1769151047.337024,2026-01-23 15:50:47.337,1173,5,1,1,0,0,513,1020,512,2,0,0
1769151047.338024,2026-01-23 15:50:47.338,1174,6,1,1,0,0,511,1020,513,2,0,0
1769151047.339024,2026-01-23 15:50:47.339,1175,7,1,1,0,0,510,1020,512,2,0,0
1769151047.340024,2026-01-23 15:50:47.340,1176,8,1,1,0,0,509,1020,513,2,0,0
1769151047.341024,2026-01-23 15:50:47.341,1177,9,1,1,0,0,512,1020,513,2,0,0
1769151047.342024,2026-01-23 15:50:47.342,1178,10,1,1,0,0,512,1020,513,2,0,0
1769151047.343024,2026-01-23 15:50:47.343,1179,11,1,1,0,0,511,1020,513,2,0,0
1769151047.344024,2026-01-23 15:50:47.344,1180,12,1,1,0,0,511,1020,513,2,0,0
1769151047.345024,2026-01-23 15:50:47.345,1181,13,1,1,0,0,511,1020,513,2,0,0
1769151047.346024,2026-01-23 15:50:47.346,1182,14,1,1,0,0,510,1020,513,2,0,0
1769151047.347024,2026-01-23 15:50:47.347,1183,15,1,1,0,0,512,1020,513,2,0,0
1769151047.348024,2026-01-23 15:50:47.348,1184,0,1,1,0,0,515,1020,513,2,0,0
1769151047.349024,2026-01-23 15:50:47.349,1185,1,1,1,0,0,515,1020,512,2,0,0
1769151047.350024,2026-01-23 15:50:47.350,1186,2,1,1,0,0,512,1020,512,2,0,0
1769151047.351024,2026-01-23 15:50:47.351,1187,3,1,1,0,0,511,1020,513,2,0,0
1769151047.352024,2026-01-23 15:50:47.352,1188,4,1,1,0,0,510,1020,514,2,0,0
1769151047.353024,2026-01-23 15:50:47.353,1189,5,1,1,0,0,511,1020,515,2,0,0
1769151047.354024,2026-01-23 15:50:47.354,1190,6,1,1,0,0,513,1020,516,2,0,0
1769151047.355024,2026-01-23 15:50:47.355,1191,7,1,1,0,0,511,1020,517,2,0,0
1769151047.356024,2026-01-23 15:50:47.356,1192,8,1,1,0,0,512,1020,517,2,0,0
1769151047.357024,2026-01-23 15:50:47.357,1193,9,1,1,0,0,511,1020,518,2,0,0
1769151047.358024,2026-01-23 15:50:47.358,1194,10,1,1,0,0,509,1020,517,2,0,0
1769151047.359024,2026-01-23 15:50:47.359,1195,11,1,1,0,0,509,1020,517,2,0,0
1769151047.360024,2026-01-23 15:50:47.360,1196,12,1,1,0,0,508,1020,517,2,0,0
1769151047.361024,2026-01-23 15:50:47.361,1197,13,1,1,0,0,512,1020,516,2,0,0
1769151047.362024,2026-01-23 15:50:47.362,1198,14,1,1,0,0,515,1020,516,2,0,0
1769151047.363024,2026-01-23 15:50:47.363,1199,15,1,1,0,0,514,1020,516,2,0,0
1769151047.364024,2026-01-23 15:50:47.364,1200,0,1,1,0,0,510,1020,515,2,0,0
1769151047.365024,2026-01-23 15:50:47.365,1201,1,1,1,0,0,509,1020,515,2,0,0
1769151047.366024,2026-01-23 15:50:47.366,1202,2,1,1,0,0,512,1020,514,2,0,0
1769151047.367024,2026-01-23 15:50:47.367,1203,3,1,1,0,0,514,1020,514,2,0,0
1769151047.368024,2026-01-23 15:50:47.368,1204,4,1,1,0,0,513,1020,514,2,0,0
1769151047.369024,2026-01-23 15:50:47.369,1205,5,1,1,0,0,510,1020,515,2,0,0
1769151047.370024,2026-01-23 15:50:47.370,1206,6,1,1,0,0,510,1020,516,2,0,0
1769151047.371024,2026-01-23 15:50:47.371,1207,7,1,1,0,0,511,1020,516,2,0,0
1769151047.372024,2026-01-23 15:50:47.372,1208,8,1,1,0,0,513,1020,517,2,0,0
1769151047.373024,2026-01-23 15:50:47.373,1209,9,1,1,0,0,513,1020,519,2,0,0
1769151047.374024,2026-01-23 15:50:47.374,1210,10,1,1,0,0,513,1020,519,2,0,0
1769151047.375024,2026-01-23 15:50:47.375,1211,11,1,1,0,0,511,1020,519,2,0,0
1769151047.376024,2026-01-23 15:50:47.376,1212,12,1,1,0,0,508,1020,518,2,0,0
1769151047.377024,2026-01-23 15:50:47.377,1213,13,1,1,0,0,508,1020,518,2,0,0
1769151047.378024,2026-01-23 15:50:47.378,1214,14,1,1,0,0,511,1020,518,2,0,0
1769151047.379024,2026-01-23 15:50:47.379,1215,15,1,1,0,0,513,1020,517,2,0,0
1769151047.380024,2026-01-23 15:50:47.380,1216,0,1,1,0,0,512,1020,516,2,0,0
1769151047.381024,2026-01-23 15:50:47.381,1217,1,1,1,0,0,512,1020,515,2,0,0
1769151047.382024,2026-01-23 15:50:47.382,1218,2,1,1,0,0,511,1020,515,2,0,0
1769151047.383024,2026-01-23 15:50:47.383,1219,3,1,1,0,0,512,1020,515,2,0,0
1769151047.384024,2026-01-23 15:50:47.384,1220,4,1,1,0,0,511,1020,514,2,0,0
1769151047.385024,2026-01-23 15:50:47.385,1221,5,1,1,0,0,514,1020,515,2,0,0
1769151047.386024,2026-01-23 15:50:47.386,1222,6,1,1,0,0,513,1020,515,2,0,0
1769151047.387024,2026-01-23 15:50:47.387,1223,7,1,1,0,0,510,1020,516,2,0,0
1769151047.388024,2026-01-23 15:50:47.388,1224,8,1,1,0,0,512,1020,516,2,0,0
1769151047.389024,2026-01-23 15:50:47.389,1225,9,1,1,0,0,513,1020,517,2,0,0
1769151047.390024,2026-01-23 15:50:47.390,1226,10,1,1,0,0,511,1020,517,2,0,0
1769151047.391024,2026-01-23 15:50:47.391,1227,11,1,1,0,0,511,1020,516,2,0,0
1769151047.392024,2026-01-23 15:50:47.392,1228,12,1,1,0,0,511,1020,516,2,0,0
1769151047.393024,2026-01-23 15:50:47.393,1229,13,1,1,0,0,512,1020,515,2,0,0
1769151047.394024,2026-01-23 15:50:47.394,1230,14,1,1,0,0,512,1020,515,2,0,0
1769151047.395024,2026-01-23 15:50:47.395,1231,15,1,1,0,0,512,1020,514,2,0,0
1769151047.396024,2026-01-23 15:50:47.396,1232,0,1,1,0,0,508,1020,513,2,0,0
1769151047.397024,2026-01-23 15:50:47.397,1233,1,1,1,0,0,508,1020,512,2,0,0
1769151047.398024,2026-01-23 15:50:47.398,1234,2,1,1,0,0,512,1020,511,2,0,0
1769151047.399024,2026-01-23 15:50:47.399,1235,3,1,1,0,0,512,1020,511,2,0,0
1769151047.400024,2026-01-23 15:50:47.400,1236,4,1,1,0,0,514,1020,511,2,0,0
1769151047.401024,2026-01-23 15:50:47.401,1237,5,1,1,0,0,512,1020,511,2,0,0
1769151047.402024,2026-01-23 15:50:47.402,1238,6,1,1,0,0,513,1020,512,2,0,0
1769151047.403024,2026-01-23 15:50:47.403,1239,7,1,1,0,0,510,1020,512,2,0,0
1769151047.404024,2026-01-23 15:50:47.404,1240,8,1,1,0,0,512,1020,513,2,0,0
1769151047.405024,2026-01-23 15:50:47.405,1241,9,1,1,0,0,512,1020,514,2,0,0
1769151047.406024,2026-01-23 15:50:47.406,1242,10,1,1,0,0,512,1020,515,2,0,0
1769151047.407024,2026-01-23 15:50:47.407,1243,11,1,1,0,0,511,1020,515,2,0,0
1769151047.408024,2026-01-23 15:50:47.408,1244,12,1,1,0,0,511,1020,514,2,0,0
1769151047.409024,2026-01-23 15:50:47.409,1245,13,1,1,0,0,511,1020,514,2,0,0
1769151047.410024,2026-01-23 15:50:47.410,1246,14,1,1,0,0,509,1020,513,2,0,0
1769151047.411024,2026-01-23 15:50:47.411,1247,15,1,1,0,0,510,1020,512,2,0,0
1769151047.412024,2026-01-23 15:50:47.412,1248,0,1,1,0,0,510,1020,512,2,0,0
1769151047.413024,2026-01-23 15:50:47.413,1249,1,1,1,0,0,508,1020,511,2,0,0
1769151047.414024,2026-01-23 15:50:47.414,1250,2,1,1,0,0,509,1020,510,2,0,0
1769151047.415024,2026-01-23 15:50:47.415,1251,3,1,1,0,0,511,1020,509,2,0,0
1769151047.416024,2026-01-23 15:50:47.416,1252,4,1,1,0,0,512,1020,509,2,0,0
1769151047.417024,2026-01-23 15:50:47.417,1253,5,1,1,0,0,513,1020,509,2,0,0
1769151047.418024,2026-01-23 15:50:47.418,1254,6,1,1,0,0,512,1020,509,2,0,0
1769151047.419024,2026-01-23 15:50:47.419,1255,7,1,1,0,0,512,1020,509,2,0,0
1769151047.420024,2026-01-23 15:50:47.420,1256,8,1,1,0,0,513,1020,510,2,0,0
1769151047.421024,2026-01-23 15:50:47.421,1257,9,1,1,0,0,515,1020,511,2,0,0
1769151047.422024,2026-01-23 15:50:47.422,1258,10,1,1,0,0,513,1020,511,2,0,0
1769151047.423024,2026-01-23 15:50:47.423,1259,11,1,1,0,0,512,1020,511,2,0,0
1769151047.424024,2026-01-23 15:50:47.424,1260,12,1,1,0,0,510,1020,511,2,0,0
1769151047.425024,2026-01-23 15:50:47.425,1261,13,1,1,0,0,510,1020,511,2,0,0
1769151047.426024,2026-01-23 15:50:47.426,1262,14,1,1,0,0,510,1020,510,2,0,0
1769151047.427024,2026-01-23 15:50:47.427,1263,15,1,1,0,0,508,1020,510,2,0,0
1769151047.428024,2026-01-23 15:50:47.428,1264,0,1,1,0,0,511,1020,508,2,0,0
1769151047.429024,2026-01-23 15:50:47.429,1265,1,1,1,0,0,510,1020,508,2,0,0
1769151047.430024,2026-01-23 15:50:47.430,1266,2,1,1,0,0,510,1020,508,2,0,0
1769151047.431024,2026-01-23 15:50:47.431,1267,3,1,1,0,0,511,1020,508,2,0,0
1769151047.432024,2026-01-23 15:50:47.432,1268,4,1,1,0,0,509,1020,508,2,0,0
1769151047.433024,2026-01-23 15:50:47.433,1269,5,1,1,0,0,513,1020,510,2,0,0
1769151047.434024,2026-01-23 15:50:47.434,1270,6,1,1,0,0,512,1020,511,2,0,0
1769151047.435024,2026-01-23 15:50:47.435,1271,7,1,1,0,0,514,1020,513,2,0,0
1769151047.436024,2026-01-23 15:50:47.436,1272,8,1,1,0,0,514,1020,515,2,0,0
1769151047.437024,2026-01-23 15:50:47.437,1273,9,1,1,0,0,512,1020,516,2,0,0
1769151047.438024,2026-01-23 15:50:47.438,1274,10,1,1,0,0,512,1020,518,2,0,0
1769151047.439024,2026-01-23 15:50:47.439,1275,11,1,1,0,0,511,1020,519,2,0,0
1769151047.440024,2026-01-23 15:50:47.440,1276,12,1,1,0,0,511,1020,519,2,0,0
1769151047.441024,2026-01-23 15:50:47.441,1277,13,1,1,0,0,511,1020,519,2,0,0
1769151047.442024,2026-01-23 15:50:47.442,1278,14,1,1,0,0,512,1020,518,2,0,0
1769151047.443024,2026-01-23 15:50:47.443,1279,15,1,1,0,0,510,1020,517,2,0,0
1769151047.444024,2026-01-23 15:50:47.444,1280,0,1,1,0,0,510,1020,516,2,0,0
1769151047.445024,2026-01-23 15:50:47.445,1281,1,1,1,0,0,511,1020,514,2,0,0
1769151047.446024,2026-01-23 15:50:47.446,1282,2,1,1,0,0,512,1020,510,2,0,0
1769151047.447024,2026-01-23 15:50:47.447,1283,3,1,1,0,0,512,1020,506,2,0,0
1769151047.448024,2026-01-23 15:50:47.448,1284,4,1,1,0,0,513,1020,502,2,0,0
1769151047.449024,2026-01-23 15:50:47.449,1285,5,1,1,0,0,511,1020,496,2,0,0
1769151047.450024,2026-01-23 15:50:47.450,1286,6,1,1,0,0,511,1020,489,2,0,0
1769151047.451024,2026-01-23 15:50:47.451,1287,7,1,1,0,0,510,1020,482,2,0,0
1769151047.452024,2026-01-23 15:50:47.452,1288,8,1,1,0,0,510,1020,476,2,0,0
1769151047.453024,2026-01-23 15:50:47.453,1289,9,1,1,0,0,513,1020,470,2,0,0
1769151047.454024,2026-01-23 15:50:47.454,1290,10,1,1,0,0,510,1020,464,2,0,0
1769151047.455024,2026-01-23 15:50:47.455,1291,11,1,1,0,0,511,1020,459,2,0,0
1769151047.456024,2026-01-23 15:50:47.456,1292,12,1,1,0,0,510,1020,452,1,0,0
1769151047.457024,2026-01-23 15:50:47.457,1293,13,1,1,0,0,512,1020,446,1,0,0
1769151047.458024,2026-01-23 15:50:47.458,1294,14,1,1,0,0,512,1020,440,1,0,0
1769151047.459024,2026-01-23 15:50:47.459,1295,15,1,1,0,0,512,1020,438,1,0,0
1769151047.460024,2026-01-23 15:50:47.460,1296,0,1,1,0,0,512,1020,438,1,0,0
1769151047.461024,2026-01-23 15:50:47.461,1297,1,1,1,0,0,512,1020,441,1,0,0
1769151047.462024,2026-01-23 15:50:47.462,1298,2,1,1,0,0,510,1020,448,1,0,0
1769151047.463024,2026-01-23 15:50:47.463,1299,3,1,1,0,0,511,1020,455,2,0,0
1769151047.464024,2026-01-23 15:50:47.464,1300,4,1,1,0,0,510,1020,466,2,0,0
1769151047.465024,2026-01-23 15:50:47.465,1301,5,1,1,0,0,511,1020,479,2,0,0
1769151047.466024,2026-01-23 15:50:47.466,1302,6,1,1,0,0,510,1020,493,2,0,0
1769151047.467024,2026-01-23 15:50:47.467,1303,7,1,1,0,0,510,1020,506,2,0,0
1769151047.468024,2026-01-23 15:50:47.468,1304,8,1,1,0,0,512,1020,518,2,0,0
1769151047.469024,2026-01-23 15:50:47.469,1305,9,1,1,0,0,512,1020,530,2,0,0
1769151047.470024,2026-01-23 15:50:47.470,1306,10,1,1,0,0,512,1020,541,2,0,0
1769151047.471024,2026-01-23 15:50:47.471,1307,11,1,1,0,0,511,1020,552,3,0,0
1769151047.472024,2026-01-23 15:50:47.472,1308,12,1,1,0,0,512,1020,562,3,0,0
1769151047.473024,2026-01-23 15:50:47.473,1309,13,1,1,0,0,512,1020,571,3,0,0
1769151047.474024,2026-01-23 15:50:47.474,1310,14,1,1,0,0,511,1020,580,3,0,0
1769151047.475024,2026-01-23 15:50:47.475,1311,15,1,1,0,0,511,1020,588,3,0,0
1769151047.476024,2026-01-23 15:50:47.476,1312,0,1,1,0,0,512,1020,598,3,0,0
1769151047.477024,2026-01-23 15:50:47.477,1313,1,1,1,0,0,513,1020,607,3,0,0
1769151047.478024,2026-01-23 15:50:47.478,1314,2,1,1,0,0,512,1020,615,3,0,0
1769151047.479024,2026-01-23 15:50:47.479,1315,3,1,1,0,0,509,1020,623,3,0,0
1769151047.480024,2026-01-23 15:50:47.480,1316,4,1,1,0,0,509,1020,628,3,0,0
1769151047.481024,2026-01-23 15:50:47.481,1317,5,1,1,0,0,511,1020,633,3,0,0
1769151047.482024,2026-01-23 15:50:47.482,1318,6,1,1,0,0,510,1020,636,3,0,0
1769151047.483024,2026-01-23 15:50:47.483,1319,7,1,1,0,0,511,1020,639,3,0,0
1769151047.484024,2026-01-23 15:50:47.484,1320,8,1,1,0,0,511,1020,641,3,0,0
1769151047.485024,2026-01-23 15:50:47.485,1321,9,1,1,0,0,513,1020,644,3,0,0
1769151047.486024,2026-01-23 15:50:47.486,1322,10,1,1,0,0,513,1020,644,3,0,0
1769151047.487024,2026-01-23 15:50:47.487,1323,11,1,1,0,0,511,1020,643,3,0,0
1769151047.488024,2026-01-23 15:50:47.488,1324,12,1,1,0,0,511,1020,640,3,0,0
1769151047.489024,2026-01-23 15:50:47.489,1325,13,1,1,0,0,511,1020,635,3,0,0
1769151047.490024,2026-01-23 15:50:47.490,1326,14,1,1,0,0,514,1020,629,3,0,0
1769151047.491024,2026-01-23 15:50:47.491,1327,15,1,1,0,0,512,1020,622,3,0,0
1769151047.492024,2026-01-23 15:50:47.492,1328,0,1,1,0,0,511,1020,614,3,0,0
1769151047.493024,2026-01-23 15:50:47.493,1329,1,1,1,0,0,512,1020,605,3,0,0
1769151047.494024,2026-01-23 15:50:47.494,1330,2,1,1,0,0,510,1020,596,3,0,0
1769151047.495024,2026-01-23 15:50:47.495,1331,3,1,1,0,0,511,1020,588,3,0,0
1769151047.496024,2026-01-23 15:50:47.496,1332,4,1,1,0,0,511,1020,580,3,0,0
1769151047.497024,2026-01-23 15:50:47.497,1333,5,1,1,0,0,511,1020,573,3,0,0
1769151047.498024,2026-01-23 15:50:47.498,1334,6,1,1,0,0,513,1020,568,3,0,0
1769151047.499024,2026-01-23 15:50:47.499,1335,7,1,1,0,0,513,1020,564,3,0,0
1769151047.500024,2026-01-23 15:50:47.500,1336,8,1,1,0,0,513,1020,563,3,0,0
1769151047.501024,2026-01-23 15:50:47.501,1337,9,1,1,0,0,511,1020,561,3,0,0
1769151047.502024,2026-01-23 15:50:47.502,1338,10,1,1,0,0,511,1020,558,3,0,0
1769151047.503024,2026-01-23 15:50:47.503,1339,11,1,1,0,0,512,1020,554,3,0,0
1769151047.504024,2026-01-23 15:50:47.504,1340,12,1,1,0,0,512,1020,548,3,0,0
1769151047.505024,2026-01-23 15:50:47.505,1341,13,1,1,0,0,511,1020,541,2,0,0
1769151047.506024,2026-01-23 15:50:47.506,1342,14,1,1,0,0,512,1020,534,2,0,0
1769151047.507024,2026-01-23 15:50:47.507,1343,15,1,1,0,0,511,1020,527,2,0,0
1769151047.508024,2026-01-23 15:50:47.508,1344,0,1,1,0,0,513,1020,521,2,0,0
1769151047.509024,2026-01-23 15:50:47.509,1345,1,1,1,0,0,511,1020,515,2,0,0
1769151047.510024,2026-01-23 15:50:47.510,1346,2,1,1,0,0,509,1020,510,2,0,0
1769151047.511024,2026-01-23 15:50:47.511,1347,3,1,1,0,0,511,1020,504,2,0,0
1769151047.512024,2026-01-23 15:50:47.512,1348,4,1,1,0,0,511,1020,499,2,0,0
1769151047.513024,2026-01-23 15:50:47.513,1349,5,1,1,0,0,511,1020,494,2,0,0
1769151047.514024,2026-01-23 15:50:47.514,1350,6,1,1,0,0,511,1020,489,2,0,0
1769151047.515024,2026-01-23 15:50:47.515,1351,7,1,1,0,0,512,1020,485,2,0,0
1769151047.516024,2026-01-23 15:50:47.516,1352,8,1,1,0,0,512,1020,481,2,0,0
1769151047.517024,2026-01-23 15:50:47.517,1353,9,1,1,0,0,511,1020,479,2,0,0
1769151047.518024,2026-01-23 15:50:47.518,1354,10,1,1,0,0,513,1020,477,2,0,0
1769151047.519024,2026-01-23 15:50:47.519,1355,11,1,1,0,0,512,1020,475,2,0,0
1769151047.520024,2026-01-23 15:50:47.520,1356,12,1,1,0,0,511,1020,475,2,0,0
1769151047.521024,2026-01-23 15:50:47.521,1357,13,1,1,0,0,511,1020,473,2,0,0
1769151047.522024,2026-01-23 15:50:47.522,1358,14,1,1,0,0,510,1020,473,2,0,0
1769151047.523024,2026-01-23 15:50:47.523,1359,15,1,1,0,0,511,1020,472,2,0,0
1769151047.524024,2026-01-23 15:50:47.524,1360,0,1,1,0,0,512,1020,471,2,0,0
1769151047.525024,2026-01-23 15:50:47.525,1361,1,1,1,0,0,511,1020,470,2,0,0
1769151047.526024,2026-01-23 15:50:47.526,1362,2,1,1,0,0,511,1020,468,2,0,0
1769151047.527024,2026-01-23 15:50:47.527,1363,3,1,1,0,0,511,1020,467,2,0,0
1769151047.528024,2026-01-23 15:50:47.528,1364,4,1,1,0,0,511,1020,467,2,0,0
1769151047.529024,2026-01-23 15:50:47.529,1365,5,1,1,0,0,508,1020,465,2,0,0
1769151047.530024,2026-01-23 15:50:47.530,1366,6,1,1,0,0,510,1020,464,2,0,0
1769151047.531024,2026-01-23 15:50:47.531,1367,7,1,1,0,0,509,1020,463,2,0,0
1769151047.532024,2026-01-23 15:50:47.532,1368,8,1,1,0,0,512,1020,462,2,0,0
1769151047.533024,2026-01-23 15:50:47.533,1369,9,1,1,0,0,514,1020,462,2,0,0
1769151047.534024,2026-01-23 15:50:47.534,1370,10,1,1,0,0,512,1020,462,2,0,0
1769151047.535024,2026-01-23 15:50:47.535,1371,11,1,1,0,0,512,1020,462,2,0,0
1769151047.536024,2026-01-23 15:50:47.536,1372,12,1,1,0,0,514,1020,462,2,0,0
1769151047.537024,2026-01-23 15:50:47.537,1373,13,1,1,0,0,513,1020,462,2,0,0
1769151047.538024,2026-01-23 15:50:47.538,1374,14,1,1,0,0,512,1020,463,2,0,0
1769151047.539024,2026-01-23 15:50:47.539,1375,15,1,1,0,0,511,1020,464,2,0,0
1769151047.540024,2026-01-23 15:50:47.540,1376,0,1,1,0,0,512,1020,463,2,0,0
1769151047.541024,2026-01-23 15:50:47.541,1377,1,1,1,0,0,511,1020,463,2,0,0
1769151047.542024,2026-01-23 15:50:47.542,1378,2,1,1,0,0,512,1020,463,2,0,0
1769151047.543024,2026-01-23 15:50:47.543,1379,3,1,1,0,0,514,1020,463,2,0,0
1769151047.544024,2026-01-23 15:50:47.544,1380,4,1,1,0,0,511,1020,463,2,0,0
1769151047.545024,2026-01-23 15:50:47.545,1381,5,1,1,0,0,511,1020,463,2,0,0
1769151047.546024,2026-01-23 15:50:47.546,1382,6,1,1,0,0,508,1020,462,2,0,0
1769151047.547024,2026-01-23 15:50:47.547,1383,7,1,1,0,0,510,1020,463,1,0,0
1769151047.548024,2026-01-23 15:50:47.548,1384,8,1,1,0,0,510,1020,462,2,0,0
1769151047.549024,2026-01-23 15:50:47.549,1385,9,1,1,0,0,510,1020,462,2,0,0
1769151047.550024,2026-01-23 15:50:47.550,1386,10,1,1,0,0,512,1020,463,2,0,0
1769151047.551024,2026-01-23 15:50:47.551,1387,11,1,1,0,0,512,1020,463,2,0,0
1769151047.552024,2026-01-23 15:50:47.552,1388,12,1,1,0,0,511,1020,464,2,0,0
1769151047.553024,2026-01-23 15:50:47.553,1389,13,1,1,0,0,512,1020,465,2,0,0
1769151047.554024,2026-01-23 15:50:47.554,1390,14,1,1,0,0,512,1020,466,2,0,0
1769151047.555024,2026-01-23 15:50:47.555,1391,15,1,1,0,0,513,1020,468,1,0,0
1769151047.556024,2026-01-23 15:50:47.556,1392,0,1,1,0,0,513,1020,469,2,0,0
1769151047.557024,2026-01-23 15:50:47.557,1393,1,1,1,0,0,513,1020,470,2,0,0
1769151047.558024,2026-01-23 15:50:47.558,1394,2,1,1,0,0,514,1020,469,2,0,0
1769151047.559024,2026-01-23 15:50:47.559,1395,3,1,1,0,0,512,1020,468,2,0,0
1769151047.560024,2026-01-23 15:50:47.560,1396,4,1,1,0,0,510,1020,468,2,0,0
1769151047.561024,2026-01-23 15:50:47.561,1397,5,1,1,0,0,508,1020,468,2,0,0
1769151047.562024,2026-01-23 15:50:47.562,1398,6,1,1,0,0,510,1020,467,2,0,0
1769151047.563024,2026-01-23 15:50:47.563,1399,7,1,1,0,0,513,1020,467,1,0,0
1769151047.564024,2026-01-23 15:50:47.564,1400,8,1,1,0,0,511,1020,467,2,0,0
1769151047.565024,2026-01-23 15:50:47.565,1401,9,1,1,0,0,508,1020,467,2,0,0
1769151047.566024,2026-01-23 15:50:47.566,1402,10,1,1,0,0,513,1020,467,2,0,0
1769151047.567024,2026-01-23 15:50:47.567,1403,11,1,1,0,0,512,1020,467,2,0,0
1769151047.568024,2026-01-23 15:50:47.568,1404,12,1,1,0,0,512,1020,468,2,0,0
1769151047.569024,2026-01-23 15:50:47.569,1405,13,1,1,0,0,512,1020,468,2,0,0
1769151047.570024,2026-01-23 15:50:47.570,1406,14,1,1,0,0,513,1020,470,2,0,0
1769151047.571024,2026-01-23 15:50:47.571,1407,15,1,1,0,0,513,1020,471,2,0,0
1769151047.572024,2026-01-23 15:50:47.572,1408,0,1,1,0,0,514,1020,472,2,0,0
1769151047.573024,2026-01-23 15:50:47.573,1409,1,1,1,0,0,508,1020,472,2,0,0
1769151047.574024,2026-01-23 15:50:47.574,1410,2,1,1,0,0,511,1020,472,2,0,0
1769151047.575024,2026-01-23 15:50:47.575,1411,3,1,1,0,0,510,1020,472,2,0,0
1769151047.576024,2026-01-23 15:50:47.576,1412,4,1,1,0,0,511,1020,472,2,0,0
1769151047.577024,2026-01-23 15:50:47.577,1413,5,1,1,0,0,510,1020,472,2,0,0
1769151047.578024,2026-01-23 15:50:47.578,1414,6,1,1,0,0,509,1020,473,2,0,0
1769151047.579024,2026-01-23 15:50:47.579,1415,7,1,1,0,0,509,1020,473,2,0,0
1769151047.580024,2026-01-23 15:50:47.580,1416,8,1,1,0,0,510,1020,473,2,0,0
1769151047.581024,2026-01-23 15:50:47.581,1417,9,1,1,0,0,512,1020,472,2,0,0
1769151047.582024,2026-01-23 15:50:47.582,1418,10,1,1,0,0,512,1020,472,2,0,0
1769151047.583024,2026-01-23 15:50:47.583,1419,11,1,1,0,0,511,1020,472,2,0,0
1769151047.584024,2026-01-23 15:50:47.584,1420,12,1,1,0,0,512,1020,472,2,0,0
1769151047.585024,2026-01-23 15:50:47.585,1421,13,1,1,0,0,514,1020,473,2,0,0
1769151047.586024,2026-01-23 15:50:47.586,1422,14,1,1,0,0,513,1020,474,2,0,0
1769151047.587024,2026-01-23 15:50:47.587,1423,15,1,1,0,0,512,1020,475,2,0,0
1769151047.588024,2026-01-23 15:50:47.588,1424,0,1,1,0,0,515,1020,476,2,0,0
1769151047.589024,2026-01-23 15:50:47.589,1425,1,1,1,0,0,514,1020,476,2,0,0
1769151047.590024,2026-01-23 15:50:47.590,1426,2,1,1,0,0,513,1020,476,2,0,0
1769151047.591024,2026-01-23 15:50:47.591,1427,3,1,1,0,0,511,1020,477,2,0,0
1769151047.592024,2026-01-23 15:50:47.592,1428,4,1,1,0,0,509,1020,477,2,0,0
1769151047.593024,2026-01-23 15:50:47.593,1429,5,1,1,0,0,511,1020,477,2,0,0
1769151047.594024,2026-01-23 15:50:47.594,1430,6,1,1,0,0,510,1020,477,2,0,0
1769151047.595024,2026-01-23 15:50:47.595,1431,7,1,1,0,0,512,1020,477,2,0,0
1769151047.596024,2026-01-23 15:50:47.596,1432,8,1,1,0,0,511,1020,477,2,0,0
1769151047.597024,2026-01-23 15:50:47.597,1433,9,1,1,0,0,512,1020,476,2,0,0
1769151047.598024,2026-01-23 15:50:47.598,1434,10,1,1,0,0,507,1020,476,2,0,0
1769151047.599024,2026-01-23 15:50:47.599,1435,11,1,1,0,0,510,1020,476,2,0,0
1769151047.600024,2026-01-23 15:50:47.600,1436,12,1,1,0,0,508,1020,477,2,0,0
1769151047.601024,2026-01-23 15:50:47.601,1437,13,1,1,0,0,511,1020,477,2,0,0
1769151047.602024,2026-01-23 15:50:47.602,1438,14,1,1,0,0,511,1020,478,2,0,0
1769151047.603024,2026-01-23 15:50:47.603,1439,15,1,1,0,0,512,1020,479,2,0,0
1769151047.604024,2026-01-23 15:50:47.604,1440,0,1,1,0,0,512,1020,481,2,0,0
1769151047.605024,2026-01-23 15:50:47.605,1441,1,1,1,0,0,512,1020,482,2,0,0
1769151047.606024,2026-01-23 15:50:47.606,1442,2,1,1,0,0,512,1020,482,2,0,0
1769151047.607024,2026-01-23 15:50:47.607,1443,3,1,1,0,0,514,1020,483,2,0,0
1769151047.608024,2026-01-23 15:50:47.608,1444,4,1,1,0,0,513,1020,483,2,0,0
1769151047.609024,2026-01-23 15:50:47.609,1445,5,1,1,0,0,514,1020,483,2,0,0
1769151047.610024,2026-01-23 15:50:47.610,1446,6,1,1,0,0,510,1020,483,2,0,0
1769151047.611024,2026-01-23 15:50:47.611,1447,7,1,1,0,0,505,1020,483,2,0,0
1769151047.612024,2026-01-23 15:50:47.612,1448,8,1,1,0,0,510,1020,483,2,0,0
1769151047.613024,2026-01-23 15:50:47.613,1449,9,1,1,0,0,510,1020,483,2,0,0
1769151047.614024,2026-01-23 15:50:47.614,1450,10,1,1,0,0,511,1020,483,2,0,0
1769151047.615024,2026-01-23 15:50:47.615,1451,11,1,1,0,0,512,1020,483,2,0,0
1769151047.616024,2026-01-23 15:50:47.616,1452,12,1,1,0,0,513,1020,483,2,0,0
1769151047.617024,2026-01-23 15:50:47.617,1453,13,1,1,0,0,514,1020,483,2,0,0
1769151047.618024,2026-01-23 15:50:47.618,1454,14,1,1,0,0,512,1020,483,2,0,0
1769151047.619024,2026-01-23 15:50:47.619,1455,15,1,1,0,0,511,1020,483,2,0,0
1769151047.620024,2026-01-23 15:50:47.620,1456,0,1,1,0,0,513,1020,484,2,0,0
1769151047.621024,2026-01-23 15:50:47.621,1457,1,1,1,0,0,511,1020,486,2,0,0
1769151047.622024,2026-01-23 15:50:47.622,1458,2,1,1,0,0,509,1020,486,2,0,0
1769151047.623024,2026-01-23 15:50:47.623,1459,3,1,1,0,0,511,1020,487,2,0,0
1769151047.624024,2026-01-23 15:50:47.624,1460,4,1,1,0,0,511,1020,487,2,0,0
1769151047.625024,2026-01-23 15:50:47.625,1461,5,1,1,0,0,512,1020,487,2,0,0
1769151047.626024,2026-01-23 15:50:47.626,1462,6,1,1,0,0,512,1020,487,2,0,0
1769151047.627024,2026-01-23 15:50:47.627,1463,7,1,1,0,0,509,1020,487,2,0,0
1769151047.628024,2026-01-23 15:50:47.628,1464,8,1,1,0,0,512,1020,487,2,0,0
1769151047.629024,2026-01-23 15:50:47.629,1465,9,1,1,0,0,512,1020,486,2,0,0
1769151047.630024,2026-01-23 15:50:47.630,1466,10,1,1,0,0,512,1020,485,2,0,0
1769151047.631024,2026-01-23 15:50:47.631,1467,11,1,1,0,0,510,1020,484,2,0,0
1769151047.632024,2026-01-23 15:50:47.632,1468,12,1,1,0,0,512,1020,484,2,0,0
1769151047.633024,2026-01-23 15:50:47.633,1469,13,1,1,0,0,512,1020,484,2,0,0
1769151047.634024,2026-01-23 15:50:47.634,1470,14,1,1,0,0,510,1020,485,2,0,0
1769151047.635024,2026-01-23 15:50:47.635,1471,15,1,1,0,0,512,1020,486,2,0,0
1769151047.636024,2026-01-23 15:50:47.636,1472,0,1,1,0,0,512,1020,487,2,0,0
1769151047.637024,2026-01-23 15:50:47.637,1473,1,1,1,0,0,512,1020,487,2,0,0
1769151047.638024,2026-01-23 15:50:47.638,1474,2,1,1,0,0,513,1020,489,2,0,0
1769151047.639024,2026-01-23 15:50:47.639,1475,3,1,1,0,0,512,1020,489,2,0,0
1769151047.640024,2026-01-23 15:50:47.640,1476,4,1,1,0,0,511,1020,489,2,0,0
1769151047.641024,2026-01-23 15:50:47.641,1477,5,1,1,0,0,509,1020,489,2,0,0
1769151047.642024,2026-01-23 15:50:47.642,1478,6,1,1,0,0,512,1020,490,2,0,0
1769151047.643024,2026-01-23 15:50:47.643,1479,7,1,1,0,0,510,1020,490,2,0,0
1769151047.644024,2026-01-23 15:50:47.644,1480,8,1,1,0,0,511,1020,489,2,0,0
1769151047.645024,2026-01-23 15:50:47.645,1481,9,1,1,0,0,511,1020,489,2,0,0
1769151047.646024,2026-01-23 15:50:47.646,1482,10,1,1,0,0,510,1020,489,2,0,0
1769151047.647024,2026-01-23 15:50:47.647,1483,11,1,1,0,0,511,1020,488,2,0,0
1769151047.648024,2026-01-23 15:50:47.648,1484,12,1,1,0,0,511,1020,488,2,0,0
1769151047.649024,2026-01-23 15:50:47.649,1485,13,1,1,0,0,512,1020,488,2,0,0
1769151047.650024,2026-01-23 15:50:47.650,1486,14,1,1,0,0,512,1020,488,2,0,0
1769151047.651024,2026-01-23 15:50:47.651,1487,15,1,1,0,0,511,1020,489,2,0,0
1769151047.652024,2026-01-23 15:50:47.652,1488,0,1,1,0,0,511,1020,489,2,0,0
1769151047.653024,2026-01-23 15:50:47.653,1489,1,1,1,0,0,513,1020,490,2,0,0
1769151047.654024,2026-01-23 15:50:47.654,1490,2,1,1,0,0,511,1020,491,2,0,0
1769151047.655024,2026-01-23 15:50:47.655,1491,3,1,1,0,0,512,1020,492,2,0,0
1769151047.656024,2026-01-23 15:50:47.656,1492,4,1,1,0,0,511,1020,492,2,0,0
1769151047.657024,2026-01-23 15:50:47.657,1493,5,1,1,0,0,513,1020,492,2,0,0
1769151047.658024,2026-01-23 15:50:47.658,1494,6,1,1,0,0,510,1020,492,2,0,0
1769151047.659024,2026-01-23 15:50:47.659,1495,7,1,1,0,0,511,1020,492,2,0,0
1769151047.660024,2026-01-23 15:50:47.660,1496,8,1,1,0,0,510,1020,492,2,0,0
1769151047.661024,2026-01-23 15:50:47.661,1497,9,1,1,0,0,509,1020,492,2,0,0
1769151047.662024,2026-01-23 15:50:47.662,1498,10,1,1,0,0,511,1020,492,2,0,0
1769151047.663024,2026-01-23 15:50:47.663,1499,11,1,1,0,0,512,1020,491,2,0,0
1769151047.664024,2026-01-23 15:50:47.664,1500,12,1,1,0,0,512,1020,491,2,0,0
1769151047.665024,2026-01-23 15:50:47.665,1501,13,1,1,0,0,510,1020,491,2,0,0
1769151047.666024,2026-01-23 15:50:47.666,1502,14,1,1,0,0,510,1020,491,2,0,0
1769151047.667024,2026-01-23 15:50:47.667,1503,15,1,1,0,0,513,1020,491,2,0,0
1769151047.668024,2026-01-23 15:50:47.668,1504,0,1,1,0,0,514,1020,492,2,0,0
1769151047.669024,2026-01-23 15:50:47.669,1505,1,1,1,0,0,514,1020,492,2,0,0
1769151047.670024,2026-01-23 15:50:47.670,1506,2,1,1,0,0,511,1020,493,2,0,0
1769151047.671024,2026-01-23 15:50:47.671,1507,3,1,1,0,0,508,1020,495,2,0,0
1769151047.672024,2026-01-23 15:50:47.672,1508,4,1,1,0,0,509,1020,496,2,0,0
1769151047.673024,2026-01-23 15:50:47.673,1509,5,1,1,0,0,509,1020,496,2,0,0
1769151047.674024,2026-01-23 15:50:47.674,1510,6,1,1,0,0,510,1020,497,2,0,0
1769151047.675024,2026-01-23 15:50:47.675,1511,7,1,1,0,0,511,1020,498,2,0,0
1769151047.676024,2026-01-23 15:50:47.676,1512,8,1,1,0,0,511,1020,498,2,0,0
1769151047.677024,2026-01-23 15:50:47.677,1513,9,1,1,0,0,513,1020,497,2,0,0
1769151047.678024,2026-01-23 15:50:47.678,1514,10,1,1,0,0,512,1020,498,2,0,0
1769151047.679024,2026-01-23 15:50:47.679,1515,11,1,1,0,0,512,1020,497,2,0,0
1769151047.680024,2026-01-23 15:50:47.680,1516,12,1,1,0,0,513,1020,497,2,0,0
1769151047.681024,2026-01-23 15:50:47.681,1517,13,1,1,0,0,511,1020,497,2,0,0
1769151047.682024,2026-01-23 15:50:47.682,1518,14,1,1,0,0,511,1020,497,2,0,0
1769151047.683024,2026-01-23 15:50:47.683,1519,15,1,1,0,0,510,1020,497,2,0,0
1769151047.684024,2026-01-23 15:50:47.684,1520,0,1,1,0,0,510,1020,498,2,0,0
1769151047.685024,2026-01-23 15:50:47.685,1521,1,1,1,0,0,511,1020,499,2,0,0
1769151047.686024,2026-01-23 15:50:47.686,1522,2,1,1,0,0,511,1020,500,2,0,0
1769151047.687024,2026-01-23 15:50:47.687,1523,3,1,1,0,0,515,1020,501,2,0,0
1769151047.688024,2026-01-23 15:50:47.688,1524,4,1,1,0,0,515,1020,502,2,0,0
1769151047.689024,2026-01-23 15:50:47.689,1525,5,1,1,0,0,512,1020,503,2,0,0
1769151047.690024,2026-01-23 15:50:47.690,1526,6,1,1,0,0,512,1020,503,2,0,0
1769151047.691024,2026-01-23 15:50:47.691,1527,7,1,1,0,0,511,1020,503,2,0,0
1769151047.692024,2026-01-23 15:50:47.692,1528,8,1,1,0,0,509,1020,503,2,0,0
1769151047.693024,2026-01-23 15:50:47.693,1529,9,1,1,0,0,512,1020,503,2,0,0
1769151047.694024,2026-01-23 15:50:47.694,1530,10,1,1,0,0,510,1020,503,2,0,0
1769151047.695024,2026-01-23 15:50:47.695,1531,11,1,1,0,0,510,1020,503,2,0,0
1769151047.696024,2026-01-23 15:50:47.696,1532,12,1,1,0,0,512,1020,502,2,0,0
1769151047.697024,2026-01-23 15:50:47.697,1533,13,1,1,0,0,513,1020,502,2,0,0
1769151047.698024,2026-01-23 15:50:47.698,1534,14,1,1,0,0,513,1020,501,2,0,0
1769151047.699024,2026-01-23 15:50:47.699,1535,15,1,1,0,0,512,1020,502,2,0,0
1769151047.700024,2026-01-23 15:50:47.700,1536,0,1,1,0,0,514,1020,502,2,0,0
1769151047.701024,2026-01-23 15:50:47.701,1537,1,1,1,0,0,511,1020,502,2,0,0
1769151047.702024,2026-01-23 15:50:47.702,1538,2,1,1,0,0,510,1020,502,2,0,0
1769151047.703024,2026-01-23 15:50:47.703,1539,3,1,1,0,0,512,1020,503,2,0,0
1769151047.704024,2026-01-23 15:50:47.704,1540,4,1,1,0,0,512,1020,504,2,0,0
1769151047.705024,2026-01-23 15:50:47.705,1541,5,1,1,0,0,511,1020,505,2,0,0
1769151047.706024,2026-01-23 15:50:47.706,1542,6,1,1,0,0,510,1020,505,2,0,0
1769151047.707024,2026-01-23 15:50:47.707,1543,7,1,1,0,0,511,1020,506,2,0,0
1769151047.708024,2026-01-23 15:50:47.708,1544,8,1,1,0,0,511,1020,506,2,0,0
1769151047.709024,2026-01-23 15:50:47.709,1545,9,1,1,0,0,511,1020,507,2,0,0
1769151047.710024,2026-01-23 15:50:47.710,1546,10,1,1,0,0,511,1020,507,2,0,0
1769151047.711024,2026-01-23 15:50:47.711,1547,11,1,1,0,0,512,1020,508,2,0,0
1769151047.712024,2026-01-23 15:50:47.712,1548,12,1,1,0,0,510,1020,508,2,0,0
1769151047.713024,2026-01-23 15:50:47.713,1549,13,1,1,0,0,510,1020,508,2,0,0
1769151047.714024,2026-01-23 15:50:47.714,1550,14,1,1,0,0,511,1020,508,2,0,0
1769151047.715024,2026-01-23 15:50:47.715,1551,15,1,1,0,0,512,1020,507,2,0,0
1769151047.716024,2026-01-23 15:50:47.716,1552,0,1,1,0,0,513,1020,507,2,0,0
1769151047.717024,2026-01-23 15:50:47.717,1553,1,1,1,0,0,512,1020,507,2,0,0
1769151047.718024,2026-01-23 15:50:47.718,1554,2,1,1,0,0,510,1020,508,2,0,0
1769151047.719024,2026-01-23 15:50:47.719,1555,3,1,1,0,0,511,1020,509,2,0,0
1769151047.720024,2026-01-23 15:50:47.720,1556,4,1,1,0,0,512,1020,511,2,0,0
1769151047.721024,2026-01-23 15:50:47.721,1557,5,1,1,0,0,514,1020,512,2,0,0
1769151047.722024,2026-01-23 15:50:47.722,1558,6,1,1,0,0,512,1020,512,2,0,0
1769151047.723024,2026-01-23 15:50:47.723,1559,7,1,1,0,0,511,1020,513,2,0,0
1769151047.724024,2026-01-23 15:50:47.724,1560,8,1,1,0,0,511,1020,513,2,0,0
1769151047.725024,2026-01-23 15:50:47.725,1561,9,1,1,0,0,510,1020,513,2,0,0
1769151047.726024,2026-01-23 15:50:47.726,1562,10,1,1,0,0,511,1020,513,2,0,0
1769151047.727024,2026-01-23 15:50:47.727,1563,11,1,1,0,0,511,1020,513,2,0,0
1769151047.728024,2026-01-23 15:50:47.728,1564,12,1,1,0,0,511,1020,513,2,0,0
1769151047.729024,2026-01-23 15:50:47.729,1565,13,1,1,0,0,510,1020,512,2,0,0
1769151047.730024,2026-01-23 15:50:47.730,1566,14,1,1,0,0,512,1020,512,2,0,0
1769151047.731024,2026-01-23 15:50:47.731,1567,15,1,1,0,0,511,1020,511,2,0,0
1769151047.732024,2026-01-23 15:50:47.732,1568,0,1,1,0,0,511,1020,511,2,0,0
1769151047.733024,2026-01-23 15:50:47.733,1569,1,1,1,0,0,513,1020,510,2,0,0
1769151047.734024,2026-01-23 15:50:47.734,1570,2,1,1,0,0,512,1020,510,2,0,0
1769151047.735024,2026-01-23 15:50:47.735,1571,3,1,1,0,0,512,1020,511,2,0,0
1769151047.736024,2026-01-23 15:50:47.736,1572,4,1,1,0,0,512,1020,511,2,0,0
1769151047.737024,2026-01-23 15:50:47.737,1573,5,1,1,0,0,513,1020,512,2,0,0
1769151047.738024,2026-01-23 15:50:47.738,1574,6,1,1,0,0,512,1020,513,2,0,0
1769151047.739024,2026-01-23 15:50:47.739,1575,7,1,1,0,0,512,1020,514,2,0,0
1769151047.740024,2026-01-23 15:50:47.740,1576,8,1,1,0,0,512,1020,514,2,0,0
1769151047.741024,2026-01-23 15:50:47.741,1577,9,1,1,0,0,515,1020,513,2,0,0
1769151047.742024,2026-01-23 15:50:47.742,1578,10,1,1,0,0,512,1020,513,2,0,0
1769151047.743024,2026-01-23 15:50:47.743,1579,11,1,1,0,0,511,1020,512,2,0,0
1769151047.744024,2026-01-23 15:50:47.744,1580,12,1,1,0,0,510,1020,512,2,0,0
1769151047.745024,2026-01-23 15:50:47.745,1581,13,1,1,0,0,510,1020,511,2,0,0
1769151047.746024,2026-01-23 15:50:47.746,1582,14,1,1,0,0,508,1020,511,2,0,0
1769151047.747024,2026-01-23 15:50:47.747,1583,15,1,1,0,0,508,1020,511,2,0,0
