EMG_raw,EMG_processed,EDA_raw,EDA_processed,ECG_raw,ECG_processed,time_sec
495,6.700219676068616,1018,1017.6935882868829,529,1.3710916622216167,0.0
501,6.730679668884987,1019,1017.6941695665137,530,1.590317456088589,0.001
521,6.839900561079867,1019,1017.6947548223247,531,1.7953286683236969,0.002
521,6.9241260004911105,1019,1017.6953440581487,530,1.9719857996238188,0.003
519,6.9317899403533545,1019,1017.6959372777924,529,2.1073739848237207,0.004
508,6.970152012635629,1019,1017.696534485036,530,2.1904940533740667,0.005
506,6.990253863146598,1019,1017.6971356836334,531,2.2128568599662044,0.006
510,6.996917405994276,1019,1017.6977408773123,531,2.168953903213493,0.007
513,7.007003335604099,1019,1017.6983500697734,530,2.056581839096377,0.008
526,7.0976378273022345,1018,1017.698963264691,529,1.8770047084439985,0.009
531,7.177775565454387,1018,1017.6995804657131,529,1.634947126878451,0.01
532,7.209019272136704,1018,1017.7002016764609,530,1.3384215285590724,0.011
524,7.220165595626719,1018,1017.7008269005291,529,0.9983992752904032,0.012
517,7.304784076176981,1018,1017.7014561414862,528,0.6283391375565345,0.013
508,7.48909327738427,1018,1017.7020894028738,528,0.2435902432243343,0.014
473,7.7665429148744956,1018,1017.702726688206,527,-0.13930847019132953,0.015
456,8.00574800961118,1019,1017.7033680009699,527,-0.5034054950098511,0.016
488,8.017555088235532,1019,1017.7040133446253,527,-0.832161231533711,0.017
511,8.242233507647216,1019,1017.704662722605,526,-1.110289887440545,0.018
520,8.444338434363381,1019,1017.7053161383146,526,-1.3245897634215202,0.019
521,8.592226191927603,1018,1017.705973595132,526,-1.464733917290798,0.02
516,8.644796171530595,1019,1017.7066350964083,526,-1.523994506570235,0.021
515,8.673994625250634,1019,1017.7073006454675,526,-1.4998760079391575,0.022
508,8.731417260315048,1019,1017.7079702456067,526,-1.3946346736469308,0.023
511,8.785088010157954,1018,1017.708643900095,527,-1.2156632982904942,0.024
511,8.876662217496508,1018,1017.7093216121743,527,-0.9757211931035727,0.025
520,8.935232012929028,1018,1017.7100033850584,527,-0.6929887936940197,0.026
517,8.923882005303232,1018,1017.7106892219326,527,-0.39092400747249334,0.027
514,8.599197582693423,1018,1017.7113791259553,526,-0.09789352072023268,0.028
515,8.3096117276175,1018,1017.7120731002565,526,0.1534510752238539,0.029
515,8.16716954875794,1018,1017.7127711479379,526,0.3270819125522022,0.03
513,8.164368754449308,1018,1017.7134732720738,525,0.384810221255066,0.031
514,8.390502636803856,1019,1017.7141794757094,526,0.2878145004670715,0.032
518,8.775432871573646,1018,1017.7148897618617,525,-0.0015360456285372897,0.033
517,9.052560792451219,1019,1017.7156041335193,526,-0.5176094065986696,0.034
515,8.912729578338919,1019,1017.716322593642,526,-1.2892679911641451,0.035
512,8.65801087278448,1019,1017.7170451451616,525,-2.3375628689558243,0.036
509,8.246609488778553,1019,1017.7177717909813,524,-3.67349646929965,0.037
503,8.222007584910726,1019,1017.7185025339759,523,-5.295999982320197,0.038
499,8.919383432043997,1018,1017.7192373769922,522,-7.190276976040248,0.039
500,9.813329692134763,1018,1017.7199763228482,521,-9.326661359704778,0.04
513,9.20276580673717,1018,1017.7207193743338,520,-11.66012576906665,0.041
523,8.33815543761099,1018,1017.7214665342099,519,-14.130553687685737,0.042
522,8.073447182423457,1018,1017.7222178052075,515,-16.6638521280732,0.043
519,8.293815193038778,1018,1017.7229731900288,513,-19.17392963792151,0.044
514,8.259514160519801,1018,1017.7237326913473,509,-21.565498452335653,0.045
510,8.377095125007331,1017,1017.7244963118073,505,-23.737585836839894,0.046
508,8.700351878822294,1018,1017.7252640540237,501,-25.58756676782726,0.047
514,8.734634244072783,1018,1017.726035920582,498,-27.015467154368,0.048
515,8.721951884052817,1018,1017.7268119140385,495,-27.92824216211014,0.049
508,8.657776917341627,1018,1017.7275920369202,494,-28.243714380074447,0.05
506,8.764797543218691,1018,1017.728376291725,494,-27.89386473444494,0.051
504,8.775147150127818,1019,1017.7291646809208,495,-26.827204292690887,0.052
502,9.12668334028737,1019,1017.729957206946,496,-25.01001293467218,0.053
499,9.467564542643185,1019,1017.7307538722098,497,-22.426304929206406,0.054
503,9.53163696889347,1019,1017.7315546790915,501,-19.07646644175966,0.055
525,9.801669071936043,1018,1017.7323596299407,505,-14.974603757017393,0.056
536,10.199243533985436,1019,1017.7331687270771,512,-10.144742998518009,0.057
532,10.443208362020243,1018,1017.7339819727908,521,-4.616129405902113,0.058
524,10.420564437700191,1018,1017.7347993693415,531,1.5820213310041804,0.059
521,10.820791448720929,1018,1017.7356209189584,543,8.425878708510245,0.06
515,11.116699172683116,1018,1017.7364466238405,554,15.901962552066497,0.061
493,11.129398216087296,1018,1017.7372764861566,562,24.011210940776074,0.062
469,11.06309816717609,1018,1017.7381105080449,571,32.77169143716764,0.063
462,10.973656313037068,1018,1017.7389486916136,578,42.219598105822456,0.064
505,10.760482853922412,1018,1017.7397910389404,584,52.408319174743085,0.065
519,10.544685100263633,1018,1017.7406375520727,591,63.405520225600405,0.066
522,10.637960135714298,1019,1017.7414882330268,605,75.28834076942994,0.067
520,10.433810845665727,1018,1017.7423430837889,620,88.13692798151048,0.068
518,10.390175297733913,1018,1017.7432021063146,635,102.02662289694499,0.069
523,10.376795503229342,1018,1017.7440653025287,649,117.01918107872432,0.07
531,10.489396943921403,1018,1017.7449326743254,665,133.15347034496713,0.071
513,10.690080399187515,1018,1017.7458042235671,678,150.436155052486,0.072
514,10.746122570072366,1018,1017.7466799520857,690,168.8329475661044,0.073
511,10.719566498493375,1018,1017.747559861682,701,188.2610682389151,0.074
503,10.74943913714586,1018,1017.7484439541258,716,208.5835825287464,0.075
506,10.834136139413472,1018,1017.7493322311561,736,229.60625088958807,0.076
488,10.959954166787455,1018,1017.750224694481,760,251.07741271256165,0.077
495,10.934553820779504,1017,1017.7511213457774,786,272.69122775582184,0.078
505,10.88606575487331,1018,1017.7520221866916,813,294.0943399893145,0.079
527,10.68920501790627,1018,1017.7529272188381,838,314.89574962067286,0.08
531,10.906995070707564,1017,1017.7538364437996,861,334.6794210412759,0.081
525,10.769664252428164,1018,1017.7547498631275,883,353.01894802836233,0.082
515,10.313161148151545,1018,1017.7556674783409,902,369.49345705100734,0.083
488,9.960316505736222,1018,1017.7565892909274,920,383.70385606074194,0.084
496,9.80295197864239,1018,1017.7575153023431,934,395.2885247022335,0.085
513,9.729868106657737,1018,1017.7584455140118,945,403.9375872052611,0.086
512,9.664491571539557,1019,1017.7593799273259,953,409.4050075179671,0.087
507,10.083576948774937,1018,1017.760318543646,952,411.517893699796,0.088
510,9.719418724628772,1018,1017.7612613643009,945,410.1825884024678,0.089
513,9.008669253146984,1018,1017.7622083905876,939,405.38734046476935,0.09
508,8.98886802682447,1018,1017.7631596237711,928,397.20157599145983,0.091
511,8.779086433806478,1018,1017.7641150650843,913,385.771989327943,0.092
521,8.682582339876904,1017,1017.7650747157281,896,371.3158367513919,0.093
519,8.456373397941613,1017,1017.7660385768713,877,354.11193224108104,0.094
521,8.416024969848737,1017,1017.7670066496507,856,334.4899154624031,0.095
524,8.41247136838192,1017,1017.767978935171,832,312.81838883352214,0.096
518,8.350591203708458,1018,1017.7689554345038,809,289.4925069801352,0.097
514,8.656779358280916,1017,1017.7699361486884,786,264.92155395941086,0.098
518,8.966615843438998,1018,1017.7709210787316,763,239.51696893517902,0.099
520,9.141614209014058,1018,1017.7719102256083,738,213.68119017607117,0.1
522,9.282890363799547,1017,1017.7729035902616,712,187.79759442293374,0.101
518,9.745930291577329,1018,1017.7739011736026,687,162.22172666013532,0.102
517,9.436518841051265,1018,1017.7749029765096,663,137.27394970473833,0.103
510,9.488846737149409,1018,1017.775908999829,640,113.23359191605518,0.104
494,9.729233570104856,1018,1017.7769192443748,617,90.33463093850105,0.105
503,9.625485674372452,1017,1017.7779337109287,594,68.76292031882413,0.106
509,9.25276827440607,1018,1017.7789524002392,572,48.65494358676785,0.107
515,9.02723766581301,1017,1017.7799753130221,553,30.098063214136968,0.108
518,9.096836076134677,1017,1017.7810024499599,536,13.132211943210285,0.109
518,9.062363609873449,1017,1017.7820338117021,521,-2.247056347586746,0.11
512,9.137885128804678,1017,1017.7830693988649,509,-16.084281985975093,0.111
473,9.240749154370253,1017,1017.7841092120311,499,-28.45875760476199,0.112
488,9.339192470908054,1017,1017.7851532517507,488,-39.47835509260591,0.113
499,9.333706871538155,1017,1017.7862015185401,479,-49.27278575666644,0.114
506,9.28933044545408,1017,1017.7872540128828,471,-57.98657789293657,0.115
509,9.289649661138153,1017,1017.7883107352295,462,-65.77205591334507,0.116
506,9.189779247983962,1018,1017.7893716859976,455,-72.78258896185757,0.117
510,9.28714951516937,1018,1017.7904368655709,449,-79.16635045891005,0.118
515,9.199940216206377,1017,1017.7915062743004,444,-85.06079883448373,0.119
525,9.218414473597058,1018,1017.7925799125042,440,-90.58805709970731,0.12
527,9.250459764803324,1017,1017.7936577804667,435,-95.85133398340277,0.121
530,9.209912298549591,1018,1017.794739878439,428,-100.93248794067374,0.122
529,9.339240539677181,1017,1017.7958262066381,423,-105.89078415928522,0.123
521,9.379057871260645,1017,1017.7969167652477,417,-110.76283561731293,0.124
496,9.26984889904953,1018,1017.7980115544183,412,-115.56365919503742,0.125
483,9.396152879563477,1017,1017.7991105742667,407,-120.28872416587554,0.126
504,9.577504185613526,1017,1017.8002138248758,401,-124.91682675478732,0.127
532,9.737555833516558,1017,1017.8013213062941,396,-129.41359108891155,0.128
528,9.97539827629044,1017,1017.8024330185367,390,-133.73537345321924,0.129
521,10.070744641624694,1017,1017.803548961584,385,-137.83333441390968,0.13
513,9.749504406019259,1017,1017.8046691353825,382,-141.65744439083883,0.131
510,9.723266060760118,1017,1017.8057935398442,377,-145.16020433562923,0.132
505,9.87318440506782,1017,1017.8069221748474,375,-148.29989350732401,0.133
489,9.895580642235139,1018,1017.8080550402356,372,-151.0431974997162,0.134
492,9.992085653239384,1017,1017.8091921358182,370,-153.3671172790812,0.135
505,10.066930352906509,1018,1017.8103334613706,369,-155.26011016226204,0.136
518,10.358309057005133,1018,1017.8114790166342,368,-156.72246315815914,0.137
516,9.948420339295955,1017,1017.8126288013159,368,-157.76594496662275,0.138
513,9.737622313253777,1018,1017.8137828150889,368,-158.41282234994867,0.139
513,9.591742005627772,1017,1017.814941057592,368,-158.6943569434716,0.14
512,9.860074734392386,1017,1017.8161035284297,368,-158.6489180512394,0.141
518,10.240964393115426,1017,1017.8172702271722,369,-158.3198553824267,0.142
515,10.767793691715843,1017,1017.8184411533557,369,-157.7532745739934,0.143
520,11.530401656336572,1017,1017.8196163064813,371,-156.99585011214018,0.144
521,11.756264596606773,1017,1017.820795686016,372,-156.09279680469183,0.145
522,11.572178660459578,1017,1017.8219792913919,373,-155.08610287402857,0.146
523,11.279226646890667,1017,1017.823167122006,374,-154.01310459856208,0.147
516,11.12102437568273,1017,1017.8243591772207,374,-152.90545403199803,0.148
510,11.12749694137977,1017,1017.8255554563639,374,-151.78849925800745,0.149
499,11.450741649306112,1017,1017.8267559587289,375,-150.6810647040462,0.15
491,11.487593488591154,1017,1017.8279606835745,376,-149.59559208873833,0.151
499,11.04869775464366,1018,1017.8291696301244,376,-148.53858425927567,0.152
493,11.180826642139055,1017,1017.8303827975678,378,-147.51128524359453,0.153
506,10.832790405320424,1017,1017.831600185059,379,-146.51052859933066,0.154
512,10.555994577238852,1017,1017.8328217917174,380,-145.5296900052429,0.155
519,10.441818328691202,1018,1017.8340476166272,381,-144.55968623124068,0.156
521,10.498735233334898,1017,1017.8352776588376,381,-143.58996866753415,0.157
518,10.504600895419888,1017,1017.8365119173627,382,-142.60946463650697,0.158
521,10.536209402795372,1017,1017.8377503911815,383,-141.60742509884585,0.159
524,10.228467770319204,1017,1017.8389930792382,385,-140.5741452677933,0.16
526,9.855370552653472,1017,1017.8402399804413,386,-139.50153577862494,0.161
527,10.07026208685729,1017,1017.8414910936649,387,-138.3835345792708,0.162
525,10.524562383396077,1017,1017.8427464177485,388,-137.2163605614858,0.163
514,11.05808029542666,1017,1017.8440059514965,390,-135.99861746754087,0.164
492,11.312770353286133,1017,1017.8452696936779,391,-134.7312612996847,0.165
491,11.527890223175785,1017,1017.8465376430263,392,-133.4174473582708,0.166
480,11.742896344736181,1018,1017.8478097982397,393,-132.06227435639536,0.167
472,12.767945330021215,1017,1017.8490861579817,394,-130.67244311075413,0.168
496,14.211927299897082,1017,1017.8503667208797,396,-129.25584762295725,0.169
506,14.446320014587068,1017,1017.851651485526,398,-127.82111878150492,0.17
514,14.296093270244164,1017,1017.8529404504775,399,-126.37714560356986,0.171
521,14.276772604171413,1017,1017.8542336142559,401,-124.9326039090256,0.172
531,14.23874210287062,1017,1017.8555309753478,403,-123.49552506405345,0.173
536,14.321992285362128,1017,1017.856832532204,404,-122.0729366157126,0.174
527,14.427808399207999,1017,1017.8581382832394,406,-120.67060199715002,0.175
504,14.181092107258536,1017,1017.8594482268345,407,-119.29287800220924,0.176
498,13.824388052197408,1017,1017.8607623613343,408,-117.94269677206255,0.177
514,13.59512316207423,1017,1017.8620806850481,408,-116.621664826801,0.178
514,13.326354532933228,1017,1017.8634031962501,409,-115.33025747650898,0.179
515,13.473792707977717,1017,1017.8647298931787,411,-114.06807601382046,0.18
515,13.74794864363535,1017,1017.8660607740367,412,-112.83413043639897,0.181
513,13.773280151323497,1017,1017.8673958369914,413,-111.62711255909889,0.182
519,13.601714466000494,1017,1017.8687350801747,414,-110.44563075472038,0.183
518,13.499967701991352,1017,1017.8700785016827,415,-109.28838533609935,0.184
512,13.326754903159344,1017,1017.8714260995757,417,-108.1542718824625,0.185
528,13.175461280140489,1017,1017.8727778718785,418,-107.0424089850435,0.186
539,13.08425818752559,1018,1017.8741338165801,419,-105.95209644040062,0.187
542,12.981849464553026,1017,1017.8754939316336,420,-104.88271819786493,0.188
524,12.731815118825125,1017,1017.8768582149564,422,-103.83361014753245,0.189
499,12.80865357218408,1017,1017.8782266644298,423,-102.8039161545528,0.19
499,12.567159999027442,1017,1017.8795992778992,424,-101.79245672723353,0.191
454,12.25309352031159,1017,1017.8809760531744,425,-100.79763256172555,0.192
434,11.702928366296186,1017,1017.8823569880296,425,-99.81737929442596,0.193
492,11.13885343202122,1016,1017.8837420802024,426,-98.84918115331196,0.194
512,10.900766608176749,1017,1017.8851313273949,427,-97.89014242937702,0.195
520,10.863368168830938,1017,1017.8865247272729,428,-96.93710941267679,0.196
520,10.887843443752608,1017,1017.8879222774663,430,-95.98683265194012,0.197
519,10.723050354173024,1017,1017.8893239755694,430,-95.03615882938718,0.198
516,10.338496654977412,1017,1017.8907298191402,431,-94.08224065907352,0.199
510,9.838338450437195,1017,1017.8921398057009,431,-93.1227503509721,0.2
509,9.560993188442886,1017,1017.8935539327376,432,-92.15607812852912,0.201
509,9.476595889503121,1018,1017.894972197701,433,-91.18149482472273,0.202
515,9.297790868900428,1017,1017.8963945980054,434,-90.1992592276972,0.203
525,9.287611476096394,1017,1017.8978211310286,435,-89.2106570156611,0.204
527,9.260572843751516,1017,1017.8992517941133,437,-88.21796722689348,0.205
519,9.216658009502352,1017,1017.9006865845663,438,-87.2243618985814,0.206
514,9.151459066839807,1017,1017.9021254996583,439,-86.23375241393285,0.207
512,9.161805440337847,1017,1017.9035685366234,440,-85.25060020066725,0.208
514,9.058730078260051,1017,1017.9050156926605,441,-84.2797088687617,0.209
516,8.958170146429861,1016,1017.9064669649324,441,-83.32601054620153,0.21
523,8.95991100900774,1017,1017.907922350566,441,-82.39435315169877,0.211
522,8.706916840657755,1017,1017.9093818466522,443,-81.48929024874839,0.212
511,8.205740177623433,1016,1017.9108454502466,444,-80.61487361415531,0.213
505,7.629750784134808,1016,1017.9123131583692,445,-79.77445182594258,0.214
505,7.4052024476394,1017,1017.9137849680037,446,-78.97048404225937,0.215
508,7.182005489859714,1017,1017.9152608760969,447,-78.20438299337216,0.216
508,6.973129376037052,1017,1017.9167408795593,448,-77.47640256948155,0.217
502,5.83349782708932,1017,1017.9182249752653,448,-76.78558286828513,0.218
508,4.344916916017478,1017,1017.9197131600536,448,-76.12975982270913,0.219
510,4.08051258548205,1017,1017.9212054307268,449,-75.50563897829969,0.22
508,4.078511649343861,1017,1017.9227017840512,449,-74.90892605310749,0.221
515,4.006133470442859,1017,1017.9242022167573,450,-74.33450296399401,0.222
511,3.876933964767284,1017,1017.9257067255394,451,-73.7766377288526,0.223
513,3.805898365379242,1017,1017.927215307056,452,-73.22921877308839,0.224
513,3.7625742408667984,1017,1017.9287279579298,452,-72.68600633315393,0.225
516,3.776756482185769,1017,1017.930244674747,452,-72.1408935858611,0.226
515,3.9321220101958745,1016,1017.9317654540578,452,-71.58816712715156,0.227
515,4.183513983127891,1016,1017.9332902923766,453,-71.02275233338933,0.228
513,4.214813449032348,1017,1017.9348191861814,454,-70.4404271447576,0.229
514,3.9432810493965382,1016,1017.9363521319146,454,-69.83798958931735,0.23
510,3.7054004873851762,1016,1017.9378891259826,455,-69.21336878023524,0.231
510,3.738336920677972,1017,1017.9394301647549,455,-68.5656739147144,0.232
508,3.788958149248717,1017,1017.9409752445649,456,-67.89518001752306,0.233
510,4.059634769942942,1017,1017.9425243617102,457,-67.20325341467566,0.234
513,4.336965563767789,1017,1017.9440775124522,458,-66.49222483391259,0.235
516,4.550531956252511,1017,1017.9456346930169,459,-65.76522302701439,0.236
515,4.492785242877033,1017,1017.9471958995946,460,-65.02598519645183,0.237
509,4.430266635834845,1017,1017.9487611283389,460,-64.27866057853372,0.238
509,4.664639197500904,1017,1017.9503303753677,460,-63.52761979893988,0.239
512,5.0830143703710355,1017,1017.9519036367628,461,-62.77727649958711,0.24
512,5.134767343012928,1016,1017.9534809085708,462,-62.031922207262994,0.241
511,5.076193841689584,1017,1017.9550621868016,463,-61.295573087219935,0.242
510,5.0834442323252915,1017,1017.9566474674289,463,-60.571828226088755,0.243
505,4.973309207987863,1016,1017.9582367463909,464,-59.86374135086922,0.244
509,4.898422388583777,1016,1017.9598300195894,465,-59.17370968730789,0.245
516,4.994893132508674,1016,1017.9614272828903,465,-58.503384967306395,0.246
515,5.1936021062800455,1017,1017.9630285321241,467,-57.85361292367014,0.247
515,5.170380474406922,1016,1017.9646337630847,467,-57.224408667907014,0.248
515,5.385115280853645,1017,1017.9662429715304,468,-56.61497510310386,0.249
513,5.529641790152816,1016,1017.9678561531828,468,-56.02376893355152,0.25
502,5.5190593905234815,1017,1017.9694733037277,468,-55.44861367293292,0.251
496,5.529602186898189,1017,1017.9710944188155,469,-54.886852581331446,0.252
506,5.599511710210761,1017,1017.9727194940606,469,-54.33552895131276,0.253
511,6.048665501138669,1017,1017.974348525041,470,-53.79157837627068,0.254
508,6.393485078358359,1017,1017.9759815072985,470,-53.25201776273331,0.255
501,6.7251845972113475,1017,1017.9776184363391,471,-52.71411793207539,0.256
516,6.89266494715069,1017,1017.9792593076331,472,-52.175549647960615,0.257
525,6.915017559713422,1017,1017.9809041166154,472,-51.63449596918766,0.258
527,7.855643481785643,1017,1017.9825528586848,472,-51.089726053516436,0.259
526,9.15136411204522,1017,1017.9842055292042,473,-50.540626412394566,0.26
519,9.624159514324193,1016,1017.9858621235016,473,-49.98718595624985,0.261
518,9.718619783381932,1016,1017.9875226368695,474,-49.4299326421112,0.262
498,9.93143955234703,1016,1017.9891870645647,474,-48.86982299724926,0.263
483,10.285265330901119,1016,1017.9908554018089,475,-48.308090809481385,0.264
501,10.390955523827568,1017,1017.992527643788,476,-47.74606705158608,0.265
512,10.65298180147844,1017,1017.9942037856526,477,-47.184988896107846,0.266
515,11.016252216770837,1017,1017.995883822518,478,-46.625820190087886,0.267
516,11.342386244598533,1017,1017.9975677494635,478,-46.06910699803021,0.268
510,11.433142552158428,1017,1017.9992555615331,478,-45.51488820015898,0.269
519,11.348941693870671,1017,1018.0009472537354,478,-44.962673072934294,0.27
523,11.342199399815344,1017,1018.0026428210435,479,-44.411488118962325,0.271
511,11.396261336516062,1017,1018.0043422583958,480,-43.85998775774313,0.272
498,11.355117298406196,1017,1018.0060455606954,481,-43.30661949430528,0.273
505,11.295999576729262,1017,1018.0077527228104,481,-42.749832267548,0.274
510,11.273618226217193,1017,1018.0094637395737,481,-42.18831367975651,0.275
509,11.237088995681482,1016,1018.0111786057819,481,-41.62123616594914,0.276
516,11.062371119267327,1017,1018.0128973161959,481,-41.04848557922112,0.277
537,10.773794956413703,1016,1018.0146198655411,482,-40.47084180866122,0.278
528,10.711091047308246,1016,1018.016346248508,483,-39.8900827512803,0.279
530,10.711115605999245,1016,1018.0180764597517,483,-39.30899034915169,0.28
519,10.645584335627476,1016,1018.0198104938927,483,-38.73124815916292,0.281
508,10.508097414955035,1017,1018.0215483455163,485,-38.161231517023396,0.282
460,10.420788848902271,1017,1018.0232900091728,486,-37.60370286994183,0.283
444,10.147798290219944,1017,1018.025035479377,486,-37.06343591042436,0.284
486,9.899559757002015,1017,1018.0267847506088,487,-36.54480091786156,0.285
501,9.686728759699815,1016,1018.0285378173135,487,-36.05134791859656,0.286
526,9.658552262289836,1017,1018.0302946739016,488,-35.585423753180834,0.287
530,9.517010954062233,1017,1018.032055314749,489,-35.147855691779284,0.288
520,9.30478912211749,1017,1018.0338197341966,488,-34.737729213699225,0.289
524,9.018266788668736,1017,1018.0355879265512,489,-34.35228098592977,0.29
531,9.287054703505303,1016,1018.0373598860847,489,-33.98692005551171,0.291
527,9.412118224126855,1017,1018.0391356070345,491,-33.63538204154959,0.292
518,9.339016654248686,1016,1018.0409150836026,491,-33.29001356953245,0.293
513,9.293590849415137,1016,1018.042698309956,490,-32.9421759795435,0.294
510,9.448771469250195,1016,1018.0444852802266,490,-32.58274612321611,0.295
504,9.373270654480995,1016,1018.0462759885113,490,-32.20267819153445,0.296
510,9.108344764488038,1017,1018.0480704288725,490,-31.793578095501548,0.297
513,9.091304425449051,1016,1018.0498685953385,490,-31.34823552828019,0.298
509,8.918049798455788,1017,1018.0516704819033,490,-30.861060264651808,0.299
512,8.788643581968282,1017,1018.0534760825262,491,-30.328377913146426,0.3
511,8.831163823941525,1017,1018.0552853911317,492,-29.748555068259193,0.301
512,8.869579229860273,1017,1018.0570984016103,493,-29.12194299178475,0.302
514,8.867361519352514,1017,1018.0589151078179,494,-28.450649723194584,0.303
512,8.447705647156019,1017,1018.0607355035759,495,-27.7381693005195,0.304
512,8.069024930342955,1017,1018.0625595826714,496,-26.988910844846544,0.305
515,7.764145893910424,1017,1018.0643873388572,497,-26.207678570869156,0.306
512,7.756992027419748,1017,1018.0662187658518,499,-25.39915640339347,0.307
513,7.947142081542838,1017,1018.0680538573401,499,-24.56744798256591,0.308
515,7.002946818632909,1016,1018.0698926069731,499,-23.715714288564488,0.309
517,5.810909637290892,1016,1018.0717350083678,500,-22.84593738427431,0.31
518,5.364842303092775,1016,1018.0735810551078,501,-21.958822356178963,0.311
512,5.242037559071535,1016,1018.0754307407424,502,-21.05383417288388,0.312
509,5.297515472667426,1016,1018.0772840587874,502,-20.129353987908694,0.313
499,5.336554076195032,1016,1018.079141002725,503,-19.18292987264446,0.314
488,5.438375474248379,1016,1018.0810015660036,503,-18.21158924007403,0.315
505,5.180768935580198,1017,1018.0828657420375,504,-17.212175167441575,0.316
512,4.850513154901262,1017,1018.0847335242074,505,-16.181668304421486,0.317
515,4.55959128458083,1017,1018.0866049058609,506,-15.117461162802913,0.318
519,4.490189915577306,1017,1018.0884798803118,508,-14.017561788559528,0.319
516,4.467329986549393,1017,1018.0903584408402,509,-12.88071706911651,0.32
511,4.482613997814359,1017,1018.0922405806923,511,-11.706459322764378,0.321
512,4.343360169679839,1017,1018.094126293081,512,-10.49509048398165,0.322
509,4.309362553375037,1017,1018.096015571186,513,-9.247624192607423,0.323
511,4.41837256461458,1016,1018.0979084081537,515,-7.965706983394232,0.324
515,4.553701853216971,1016,1018.0998047970979,515,-6.651536568036601,0.325
517,4.6955454292345635,1016,1018.1017047310993,517,-5.307789641873177,0.326
519,4.857288820279982,1016,1018.103608203206,519,-3.9375654115807994,0.327
515,4.957381871919651,1016,1018.1055152064337,519,-2.544345202359231,0.328
512,4.949884284582312,1016,1018.1074257337641,520,-1.1319632238788297,0.329
514,4.973256107796372,1016,1018.1093397781465,521,0.29542108729442873,0.33
521,5.2477709735860385,1016,1018.1112573324972,524,1.7333613006689599,0.331
524,5.517910702777384,1017,1018.1131783896999,525,3.177183375659316,0.332
515,5.612474003276679,1017,1018.115102942606,526,4.622071480941912,0.333
504,5.615551950512105,1017,1018.117030984034,527,6.063179741002716,0.334
509,5.594641650365993,1016,1018.11896250677,529,7.495765391299473,0.335
508,5.606175208881545,1017,1018.120897503567,531,8.915335715596989,0.336
495,5.66415605338587,1017,1018.1228359671459,532,10.317797297767893,0.337
489,6.028129679479576,1017,1018.1247778901948,534,11.699592153509087,0.338
499,6.364304792781202,1017,1018.12672326537,536,13.057803474948786,0.339
510,6.127323726891966,1017,1018.1286720852959,536,14.390215631751996,0.34
514,5.729304437454116,1017,1018.1306243425652,537,15.695318905889152,0.341
513,5.710316506025965,1017,1018.1325800297391,538,16.97225793584216,0.342
514,5.805415448407443,1016,1018.1345391393475,540,18.220731137256116,0.343
512,6.0652975754817655,1016,1018.1365016638888,541,19.44085343719328,0.344
514,6.442792738398928,1016,1018.1384675958302,542,20.632995999271742,0.345
512,6.781184207286675,1016,1018.1404369276074,543,21.797616334140223,0.346
511,6.938540727978669,1016,1018.1424096516239,544,22.935092231803463,0.347
518,6.963702263621316,1016,1018.1443857602517,545,24.04557327314218,0.348
520,7.123986701126819,1017,1018.146365245831,546,25.12886311300448,0.349
519,7.412989858613852,1016,1018.1483481006708,547,26.184343523037047,0.35
519,7.37656973204341,1017,1018.1503343170484,548,27.21094735395559,0.351
517,7.42581740414072,1017,1018.1523238872101,550,28.20718255897039,0.352
512,7.298915673913339,1017,1018.1543168033709,550,29.171204010384105,0.353
513,7.263192188836064,1017,1018.1563130577151,551,30.1009252600648,0.354
496,7.326748742387404,1017,1018.1583126423952,552,30.994159579147105,0.355
495,7.34458858938699,1017,1018.1603155495327,553,31.848778221652175,0.356
505,7.3421025656244785,1017,1018.1623217712181,554,32.66287274631371,0.357
510,7.229380911362578,1016,1018.1643312995106,555,33.43490710436142,0.358
512,7.316075970371911,1016,1018.1663441264391,556,34.16384508191704,0.359
516,7.178489885607219,1016,1018.1683602440012,556,34.84924085539301,0.36
519,7.243952680600054,1016,1018.1703796441639,556,35.49128535003397,0.361
529,7.417210316595534,1016,1018.1724023188631,557,36.09080785623844,0.362
529,7.27598146947335,1016,1018.1744282600039,557,36.649238681270226,0.363
512,6.90241461079316,1016,1018.1764574594608,558,37.16854222994996,0.364
513,6.693296726713618,1016,1018.178489909078,558,37.65113020632201,0.365
517,6.851013982129939,1017,1018.1805256006687,559,38.09976264821364,0.366
504,7.0783254498952495,1017,1018.1825645260155,560,38.51744169111144,0.367
495,7.418321515928831,1017,1018.1846066768712,559,38.907300551113224,0.368
483,7.701945371286053,1016,1018.186652044958,560,39.272489249926124,0.369
490,7.842307919809157,1017,1018.1887006219681,560,39.61605923966495,0.37
502,7.821278525453111,1017,1018.1907523995633,561,39.94085014055318,0.371
512,8.057527658609807,1017,1018.1928073693757,561,40.24938205153422,0.372
521,8.598295932166385,1016,1018.1948655230071,561,40.543756644909934,0.373
526,9.105334461930061,1016,1018.1969268520302,561,40.8255707206316,0.374
513,9.132108310028897,1016,1018.1989913479874,562,41.09584729984031,0.375
503,9.199738673852591,1016,1018.2010590023914,561,41.35499063385445,0.376
513,9.153654317898038,1016,1018.2031298067244,561,41.60277167613376,0.377
513,9.102726382496053,1016,1018.2052037524389,562,41.838349104364895,0.378
516,9.130719011196645,1016,1018.2072808309575,563,42.06032731821048,0.379
508,9.33324193978259,1016,1018.2093610336727,563,42.2668470585203,0.38
504,9.192184849668614,1016,1018.2114443519475,563,42.45569860501942,0.381
505,9.885393005787659,1016,1018.2135307771149,563,42.62444506959007,0.382
506,11.031950982719087,1016,1018.2156203004782,563,42.77054510027359,0.383
513,11.859989520686545,1017,1018.2177129133114,563,42.89146846438833,0.384
520,12.168819749334842,1017,1018.2198086068591,563,42.98480197706238,0.385
525,12.329127102223877,1016,1018.2219073723367,563,43.04834578118245,0.386
524,13.227234788706827,1017,1018.22400920093,563,43.08020092247093,0.387
517,15.159966708797713,1017,1018.2261140837958,563,43.07884881204682,0.388
512,16.554315371782817,1016,1018.2282220120613,563,43.04322194284096,0.389
505,16.80513143950539,1017,1018.2303329768255,563,42.97276357728834,0.39
501,17.830063868742595,1016,1018.2324469691579,563,42.8674725334693,0.391
495,18.826588954670438,1016,1018.2345639800996,563,42.72792816837521,0.392
498,19.533171820824005,1016,1018.2366840006629,563,42.55529070493444,0.393
506,19.41197796934028,1016,1018.2388070218316,562,42.351273630913596,0.394
516,19.2257829873637,1016,1018.2409330345612,562,42.1180881083101,0.395
526,20.13534535528743,1016,1018.2430620297786,561,41.8583634275608,0.396
541,21.796468704702164,1016,1018.2451939983829,561,41.57505093503047,0.397
545,22.709249345532186,1016,1018.2473289312455,561,41.27132000612951,0.398
524,22.626075377571365,1016,1018.2494668192097,561,40.95045313543831,0.399
502,22.682326409373466,1016,1018.2516076530904,560,40.61574423549374,0.4
506,23.520469033205245,1016,1018.2537514236745,560,40.270401730404885,0.401
515,24.339291414951898,1017,1018.2558981217206,560,39.917457199958804,0.402
508,25.206467186424184,1016,1018.2580477379596,559,39.55968096899512,0.403
500,25.754763073950237,1016,1018.260200263095,558,39.19950747273068,0.404
517,26.071205117881036,1016,1018.2623556878033,558,38.83897491250967,0.405
562,26.005672451191707,1016,1018.2645140027333,558,38.479684584626156,0.406
571,26.499651541511888,1016,1018.2666751985074,558,38.12278410134867,0.407
553,27.008683953220984,1016,1018.2688392657204,556,37.76897587128305,0.408
525,27.112736893170013,1016,1018.2710061949409,556,37.41854939593966,0.409
497,27.20455018033304,1016,1018.2731759767106,557,37.07143370502334,0.41
452,27.130647418874876,1015,1018.2753486015444,557,36.72726329127308,0.411
395,27.061368726536905,1016,1018.2775240599307,556,36.38544713759573,0.412
416,27.237376283216037,1016,1018.2797023423317,555,36.04522870570137,0.413
524,27.658999040749148,1015,1018.2818834391836,555,35.705727563150944,0.414
559,27.907186641508464,1016,1018.2840673408967,555,35.365959318527246,0.415
566,27.825783732892358,1015,1018.2862540378554,555,35.02483636186374,0.416
545,27.61275991447621,1016,1018.2884435204186,553,34.68115634037546,0.417
519,27.243957908370703,1016,1018.2906357789196,552,34.3335894743742,0.418
487,26.943469207329052,1016,1018.2928308036661,552,33.980679715758235,0.419
443,26.920555583221084,1016,1018.29502858494,552,33.62087549913457,0.42
414,27.16692836009979,1016,1018.2972291129985,552,33.252600657427564,0.421
462,27.132487954134312,1016,1018.299432378073,552,32.874365942511474,0.422
500,26.750831270486838,1016,1018.3016383703701,551,32.484910696553065,0.423
527,26.22823898234993,1016,1018.3038470800715,551,32.083356309212895,0.424
551,26.22992026488453,1016,1018.3060584973335,551,31.669349166693923,0.425
558,26.34557041607518,1015,1018.3082726122879,551,31.243169909571527,0.426
553,26.925231743584046,1016,1018.3104894150409,551,30.805787375520712,0.427
539,27.27160633949543,1015,1018.3127088956747,550,30.358840538149646,0.428
529,27.242435791074648,1015,1018.3149310442467,548,29.904541326141583,0.429
511,27.080708344738387,1016,1018.3171558507896,547,29.445504653415306,0.43
477,27.155386212062826,1015,1018.3193833053114,547,28.984525402333578,0.431
479,26.668166155931356,1016,1018.3216133977957,547,28.524330315834753,0.432
499,26.26525487625069,1016,1018.3238461182021,546,28.067333305822526,0.433
508,26.313912960733678,1016,1018.3260814564663,546,27.615417691993528,0.434
515,26.492236778484195,1016,1018.3283194024992,545,27.169762453923397,0.435
522,26.587247704542364,1016,1018.3305599461881,544,26.730724029537697,0.436
532,25.924476395732547,1016,1018.3328030773968,545,26.297780227741892,0.437
539,23.87345236576406,1016,1018.3350487859651,545,25.869537353276062,0.438
529,22.821596375675075,1016,1018.3372970617091,543,25.443795913966625,0.439
520,23.129193672937376,1016,1018.3395478944211,543,25.017666237059967,0.44
512,22.389930182557986,1016,1018.3418012738701,543,24.587724257408226,0.441
516,21.59625191165932,1016,1018.3440571898017,542,24.150198315449124,0.442
514,21.79443678784321,1016,1018.3463156319384,542,23.701177877414935,0.443
509,22.6262443149051,1016,1018.3485765899803,541,23.236834385157994,0.444
502,22.392486434576615,1016,1018.3508400536051,541,22.753643905184706,0.445
505,21.606684530667355,1016,1018.3531060124673,540,22.248601230784903,0.446
524,20.87361327766266,1016,1018.3553744561985,540,21.719415360070258,0.447
510,21.144032253956734,1016,1018.3576453744084,539,21.16467675855033,0.448
505,21.694220980212222,1016,1018.3599187566846,539,20.583987732725173,0.449
499,21.38788740303002,1016,1018.3621945925928,537,19.97804884583104,0.45
480,20.560531492361207,1016,1018.3644728716771,537,19.34869652922676,0.451
495,20.02608340924607,1017,1018.3667535834596,537,18.698889126108078,0.452
513,19.78806940323963,1016,1018.3690367174412,536,18.032639621314093,0.453
518,19.304391632776614,1016,1018.3713222631008,536,17.354893619864903,0.454
525,18.975952656437673,1016,1018.3736102098959,535,16.671352713375217,0.455
540,18.97442507816168,1016,1018.3759005472627,533,15.98824802488476,0.456
556,18.573439055540575,1017,1018.3781932646168,532,15.31207618600985,0.457
557,17.986907565294874,1016,1018.3804883513528,531,14.649317579358879,0.458
540,18.30972965829759,1017,1018.3827857968433,531,14.006160481092198,0.459
529,19.512314602137316,1016,1018.38508559044,531,13.388252269509799,0.46
534,20.774661854565235,1016,1018.387387721473,530,12.800491210836595,0.461
497,21.137962024998735,1016,1018.3896921792514,530,12.246863447376798,0.462
476,20.77668494474999,1016,1018.3919989530634,529,11.730323451579238,0.463
479,20.653845102243388,1016,1018.3943080321758,529,11.252713686355518,0.464
494,20.763175044726868,1016,1018.3966194058341,528,10.814719753632929,0.465
491,20.767140021296974,1016,1018.3989330632633,527,10.415859599882024,0.466
460,21.090372304806408,1016,1018.4012489936674,527,10.05450812260082,0.467
456,21.84013235823486,1016,1018.40356718623,527,9.727960381606326,0.468
504,22.8059186136574,1017,1018.4058876301135,527,9.432536565460117,0.469
534,23.995456273156726,1016,1018.4082103144603,525,9.163730440874291,0.47
563,24.969026053778563,1016,1018.410535228393,524,8.916401676944972,0.471
568,25.624755485276655,1017,1018.4128623610138,525,8.685010863890154,0.472
541,25.795838567964978,1017,1018.4151917014053,525,8.46389133258013,0.473
511,25.6835916653097,1017,1018.4175232386303,526,8.247542085128607,0.474
504,26.133027358258023,1017,1018.4198569617317,526,8.03091394469198,0.475
487,27.096356837846564,1016,1018.4221928597328,527,7.809652418414403,0.476
473,28.062080473747717,1017,1018.4245309216369,526,7.580260797493348,0.477
515,29.508533901943036,1016,1018.4268711364282,524,7.340157433123946,0.478
508,30.182814368637487,1016,1018.4292134930713,524,7.0876200411099095,0.479
511,30.203894598532646,1017,1018.4315579805118,523,6.821632026598378,0.48
519,30.269239702625416,1016,1018.4339045876761,522,6.541664534062311,0.481
508,30.09012276615053,1017,1018.4362533034716,521,6.2474387371232,0.482
477,29.360538172127402,1017,1018.438604116787,521,5.938714726456206,0.483
447,28.717648455695898,1017,1018.4409570164933,521,5.615146826762634,0.484
441,28.474300780247745,1018,1018.4433119914427,521,5.276231578691096,0.485
486,28.44870393988062,1017,1018.4456690304698,521,4.92135677792907,0.486
507,28.508995097178932,1018,1018.4480281223916,521,4.54994195343575,0.487
531,28.821923090294423,1018,1018.4503892560076,520,4.161645992774127,0.488
529,28.6635772553427,1018,1018.4527524200996,521,3.7566078983123554,0.489
518,28.589468275485,1018,1018.4551176034317,520,3.335681832788015,0.49
529,28.714647946163325,1017,1018.4574847947508,520,2.900627141949084,0.491
551,28.847313439161518,1018,1018.4598539827864,520,2.454217824816501,0.492
561,28.35866664798494,1018,1018.4622251562512,519,2.000244118942789,0.493
579,27.627748930546822,1017,1018.4645983038411,518,1.5433911862113259,0.494
575,27.778460304804955,1018,1018.4669734142356,518,1.088995216246378,0.495
556,28.145682944178425,1018,1018.4693504760978,516,0.6426936206255677,0.496
530,28.17390662660926,1018,1018.4717294780746,516,0.21000091132215848,0.497
512,27.909938883065546,1018,1018.4741104087964,515,-0.20414676703413406,0.498
481,27.90841287223751,1018,1018.4764932568771,514,-0.595828990254418,0.499
447,28.323071684432612,1018,1018.4788780109145,513,-0.9625098531799035,0.5
431,28.648401673287907,1019,1018.4812646594903,512,-1.3032925661589292,0.501
419,28.323694485374656,1019,1018.4836531911708,513,-1.6190252322755008,0.502
479,27.82457432704991,1019,1018.4860435945063,513,-1.912240704097924,0.503
516,27.830169992976106,1019,1018.4884358580313,514,-2.186935610237089,0.504
528,27.939322449645353,1019,1018.4908299702639,514,-2.448215752049792,0.505
529,28.115645303090556,1019,1018.4932259197068,513,-2.70185133473491,0.506
519,28.101419496697673,1019,1018.4956236948466,513,-2.9537924372794717,0.507
524,28.424402666660907,1019,1018.498023284155,513,-3.209693311394634,0.508
527,28.160474027360337,1019,1018.5004246760883,513,-3.4744868970697698,0.509
528,27.000139696761856,1019,1018.5028278590877,512,-3.752041378819348,0.51
536,25.81137884263177,1019,1018.5052328215794,511,-4.044919648884072,0.511
539,25.39083190255817,1019,1018.5076395519746,511,-4.354250560672662,0.512
540,25.451960226035418,1019,1018.5100480386706,510,-4.679709560201174,0.513
536,25.206308036320998,1019,1018.5124582700497,510,-5.0195980319874876,0.514
535,24.94139263808387,1019,1018.5148702344806,510,-5.3710064420615256,0.515
533,24.936984274955847,1019,1018.517283920317,509,-5.730045140851507,0.516
537,24.60341753047811,1020,1018.5196993158985,509,-6.092126703499322,0.517
524,23.880888665851593,1020,1018.5221164095502,509,-6.452283502583682,0.518
497,22.908047135560533,1020,1018.5245351895834,508,-6.805503258386369,0.519
464,21.603896623694368,1020,1018.5269556442955,507,-7.147063552951717,0.52
454,20.377407770608713,1020,1018.5293777619705,507,-7.47284404705243,0.521
462,19.674031989037964,1020,1018.5318015308786,507,-7.779593559351277,0.522
476,19.544430818752875,1020,1018.5342269392769,506,-8.065129710907181,0.523
486,19.773567378762255,1020,1018.5366539754092,505,-8.328451726147659,0.524
491,19.271149311559093,1020,1018.5390826275062,505,-8.56975148123037,0.525
504,18.10826047003073,1020,1018.5415128837855,505,-8.790314243592238,0.526
502,16.687724157726283,1020,1018.5439447324521,505,-8.992309892255589,0.527
505,15.031487648842024,1020,1018.5463781616987,505,-9.178487535260572,0.528
518,14.651429553640662,1020,1018.548813159705,505,-9.351799066601755,0.529
520,14.717292500706792,1020,1018.5512497146384,507,-9.514987618652015,0.53
523,14.533908935734095,1020,1018.5536878146542,506,-9.670182927107014,0.531
531,14.56368239492134,1020,1018.5561274478952,505,-9.818545185044584,0.532
526,15.211437565397551,1020,1018.5585686024925,503,-9.95999057720127,0.533
519,15.319057692039298,1020,1018.561011266566,504,-10.093017500276597,0.534
517,15.142863588115166,1020,1018.5634554282234,504,-10.21463874647274,0.535
518,14.833652570269566,1020,1018.5659010755613,504,-10.32041725086429,0.536
515,14.446074968497264,1020,1018.5683481966654,504,-10.40460143108692,0.537
519,13.960601200950727,1020,1018.5707967796099,504,-10.460356381424697,0.538
519,13.520391907251142,1020,1018.5732468124585,504,-10.480085484123256,0.539
518,13.15796140520494,1020,1018.5756982832645,503,-10.455832519651137,0.54
515,13.105099592181997,1020,1018.5781511800706,504,-10.379748104161832,0.541
515,13.064250816836552,1020,1018.5806054909094,504,-10.244597785419302,0.542
512,12.820284679477359,1020,1018.5830612038035,503,-10.044283557843128,0.543
512,12.679618388337952,1020,1018.5855183067647,503,-9.774346193846537,0.544
515,12.43695273947182,1020,1018.5879767877946,504,-9.432412898930076,0.545
521,11.65828964585106,1020,1018.5904366348846,504,-9.01855467833735,0.546
524,11.016483555619214,1020,1018.5928978360157,504,-8.535521523934802,0.547
524,10.518732718003797,1020,1018.595360379159,504,-7.9888303819074675,0.548
522,9.919138227947412,1020,1018.597824252276,505,-7.386689677736359,0.549
519,9.556601097254084,1020,1018.6002894433186,506,-6.739755177445012,0.55
526,9.297451436295583,1020,1018.6027559402291,507,-6.060725671474774,0.551
503,9.200927121773555,1020,1018.60522373094,508,-5.363802041389034,0.552
496,9.176883287804566,1020,1018.607692803374,508,-4.664046778274842,0.553
505,9.31591729739714,1020,1018.6101631454444,511,-3.976690592346997,0.554
507,9.316076120379662,1020,1018.6126347450554,511,-3.3164375540922966,0.555
494,9.16385948975032,1020,1018.6151075901025,511,-2.69681975972065,0.556
473,9.055212837719159,1020,1018.6175816684727,512,-2.1296459213275587,0.557
495,8.9540290550747,1020,1018.6200569680441,512,-1.6245758161580763,0.558
505,8.966803432003775,1020,1018.6225334766873,512,-1.1888368058853065,0.559
514,8.97999754030693,1020,1018.6250111822646,512,-0.8270829176560572,0.56
515,8.912927608953277,1020,1018.6274900726307,511,-0.5413834168922225,0.561
516,8.961499947509797,1020,1018.6299701356324,512,-0.3313179860151363,0.562
517,9.035076736619239,1020,1018.6324513591089,511,-0.19415124653398247,0.563
519,8.974773288713545,1020,1018.634933730892,513,-0.1250613106509341,0.564
532,9.215601562375618,1020,1018.6374172388068,513,-0.11740414473322522,0.565
532,9.594712060875136,1020,1018.639901870672,512,-0.16300439623670554,0.566
525,9.872595218262987,1020,1018.6423876142994,513,-0.25246992708805654,0.567
518,10.090178614931261,1020,1018.6448744574941,512,-0.3755294002384217,0.568
512,10.090810135800705,1020,1018.6473623880543,512,-0.5213906086851364,0.569
504,10.273310501805044,1020,1018.6498513937717,512,-0.6791138580580681,0.57
487,10.370546213200072,1020,1018.6523414624315,511,-0.8379910402569222,0.571
488,10.376285317124712,1020,1018.6548325818125,511,-0.9879177637277126,0.572
507,10.39191082109632,1020,1018.6573247396858,511,-1.1197436524613824,0.573
516,10.401884470375183,1020,1018.6598179238166,511,-1.2255852838093195,0.574
516,10.791756419836894,1020,1018.662312121963,510,-1.2990872398516506,0.575
512,11.189442427520227,1020,1018.664807321877,510,-1.3356187492957472,0.576
504,11.324990102053205,1020,1018.6673035113034,511,-1.3323960500480443,0.577
499,11.252350010789591,1020,1018.6698006779819,510,-1.2885243736690384,0.578
502,11.06214783508294,1020,1018.6722988096466,510,-1.2049584256029178,0.579
513,11.505012363880011,1020,1018.674797894026,511,-1.0843854984779617,0.58
518,12.650345767213166,1020,1018.6772979188439,511,-0.9310402141072233,0.581
526,12.882040314629913,1020,1018.6797988718184,511,-0.7504641911489244,0.582
527,12.129009096958807,1020,1018.6823007406628,512,-0.5492269325739786,0.583
519,11.911066349638062,1020,1018.6848035130851,512,-0.3346246746643153,0.584
514,12.121101524912351,1020,1018.6873071767885,511,-0.11437125082052081,0.585
519,12.253745228022778,1020,1018.6898117194718,511,0.10371033349122218,0.586
519,12.227429994344314,1020,1018.6923171288284,511,0.3119931473388732,0.587
508,12.21208885588285,1020,1018.6948233925476,511,0.5033499329503042,0.588
493,12.20785736831212,1020,1018.6973304983138,511,0.6714557270105916,0.589
487,12.148484855151507,1020,1018.6998384338075,512,0.8110842016632772,0.59
496,11.809686085496407,1020,1018.702347186705,512,0.9183831547024726,0.591
498,11.655957646769693,1020,1018.704856744679,514,0.9911047219762287,0.592
511,11.62072580458678,1020,1018.707367095399,514,1.0287587079256542,0.593
521,11.574691270805708,1020,1018.7098782265315,513,1.0326565515491415,0.594
518,11.577707301751369,1020,1018.71239012574,513,1.005821385726688,0.595
520,11.666319072170536,1020,1018.7149027806853,512,0.9527556233361898,0.596
522,11.555391557455424,1020,1018.717416179026,512,0.8790770527552642,0.597
524,11.247517806935566,1020,1018.7199303084183,511,0.7910521672174526,0.598
538,11.197332195086803,1020,1018.7224451565155,512,0.6950681435761392,0.599
539,11.26549060071814,1020,1018.7249607109686,511,0.5970920062019445,0.6
529,11.3272559191332,1020,1018.7274769594258,510,0.5021682559361528,0.601
519,11.754647979663002,1020,1018.7299938895324,509,0.4140060407554157,0.602
502,12.474631851594307,1020,1018.7325114889306,508,0.33470351171114004,0.603
483,12.704668547413673,1020,1018.7350297452606,509,0.26464765591863204,0.604
447,12.66452001114391,1020,1018.7375486461603,510,0.20260990602148837,0.605
482,12.736813424954683,1020,1018.7400681792653,511,0.1460321062610881,0.606
509,12.915266798375697,1020,1018.7425883322087,511,0.09146970621705185,0.607
519,12.951640971274847,1020,1018.7451090926218,511,0.03513703084405243,0.608
526,12.948355207001416,1020,1018.747630448134,511,-0.026511900653402275,0.609
519,13.048694473123408,1020,1018.7501523863732,511,-0.09623426129657806,0.61
514,13.184820364265665,1020,1018.752674894966,511,-0.17554152354963398,0.611
507,13.208147362220359,1020,1018.7551979615384,512,-0.2643842213541699,0.612
505,13.244670126259939,1020,1018.7577215737153,512,-0.36101360636043983,0.613
505,13.392560604449526,1020,1018.7602457191203,510,-0.462037526416732,0.614
516,13.185070172192484,1020,1018.7627703853766,509,-0.5626655108497685,0.615
523,12.734925356878417,1020,1018.7652955601063,508,-0.6571132817536316,0.616
524,12.602247728487123,1020,1018.7678212309318,508,-0.7391154663126239,0.617
515,12.784032504701125,1020,1018.7703473854747,508,-0.8024833420078704,0.618
510,13.34061180692103,1020,1018.7728740113573,508,-0.8416440891585775,0.619
521,13.566439523726398,1020,1018.7754010962019,508,-0.8521064818172395,0.62
529,13.47247231171325,1020,1018.7779286276307,508,-0.8308106027806583,0.621
518,13.802477809597322,1020,1018.7804565932662,507,-0.7763326368933471,0.622
509,14.249319842146573,1020,1018.7829849807314,507,-0.6889290520978386,0.623
503,14.73931101734866,1020,1018.7855137776497,508,-0.5704184908558638,0.624
501,14.624894937648827,1020,1018.7880429716444,509,-0.4239159438035182,0.625
490,14.331125319986448,1020,1018.7905725503384,510,-0.2534518138302278,0.626
467,14.22453148124431,1020,1018.7931025013555,511,-0.06352455802263388,0.627
489,15.571314351943304,1020,1018.7956328123206,511,0.14135562080469008,0.628
503,16.606568274945893,1020,1018.7981634708591,510,0.357076647764776,0.629
518,16.36006867985067,1020,1018.8006944645978,510,0.5802452226499557,0.63
526,15.167685534901379,1020,1018.8032257811648,510,0.80839425254528,0.631
529,14.769332875991905,1020,1018.8057574081901,510,1.0400720698664692,0.632
526,15.066548347107144,1020,1018.8082893333059,510,1.2748232127294146,0.633
525,15.307251635296348,1020,1018.8108215441463,510,1.5130800771067268,0.634
520,15.380221351015106,1020,1018.8133540283476,510,1.755990063671991,0.635
521,15.613100840168812,1020,1018.8158867735484,509,2.0052048934793643,0.636
520,15.766823796918787,1020,1018.8184197673896,510,2.2626575450365247,0.637
522,15.849831805066811,1020,1018.8209529975144,512,2.530347131972379,0.638
520,15.805371526562034,1020,1018.8234864515681,512,2.8101433041971893,0.639
510,15.788138898949514,1020,1018.8260201171985,512,3.1036125386494957,0.64
502,15.800420010397222,1020,1018.828553982056,511,3.4118637871953776,0.641
489,15.685720429566532,1020,1018.8310880337941,511,3.735412300594959,0.642
483,15.56105015720059,1020,1018.8336222600698,512,4.074064641507949,0.643
489,15.54957551827527,1020,1018.8361566485424,513,4.426829497610837,0.644
511,15.571594052332362,1020,1018.8386911868752,514,4.791855811223133,0.645
535,15.389629622696287,1020,1018.8412258627341,513,5.166394861987683,0.646
546,15.175133427693945,1020,1018.843760663789,513,5.546780837972564,0.647
546,15.127165508720697,1020,1018.8462955777131,514,5.9284266231124425,0.648
535,15.191577241358724,1020,1018.8488305921833,515,6.30583542966204,0.649
521,15.163865888370061,1020,1018.8513656948794,515,6.6726315483472955,0.65
499,15.158070200954654,1020,1018.8539008734851,514,7.021615138471726,0.651
436,14.836108626506164,1020,1018.8564361156882,515,7.344848730445646,0.652
454,14.057383020739852,1020,1018.8589714091804,514,7.633786907345948,0.653
492,13.645112774972068,1020,1018.8615067416576,514,7.879462630242103,0.654
510,13.589202228470972,1020,1018.8640421008199,515,8.0727410934423,0.655
521,13.507095373219594,1020,1018.8665774743718,516,8.20464413938675,0.656
527,13.424422913283701,1020,1018.8691128500222,515,8.2667367542373,0.657
530,13.502503539425026,1020,1018.8716482154855,516,8.251555483003518,0.658
531,13.484271393748132,1020,1018.874183558481,515,8.15305012509113,0.659
531,13.419385749568194,1020,1018.8767188667343,516,7.967005764576124,0.66
522,13.307222849031271,1020,1018.8792541279763,516,7.691411064797935,0.661
519,13.179909885437878,1020,1018.8817893299438,515,7.326740320589574,0.662
515,13.25917638355764,1020,1018.8843244603795,514,6.876121818852475,0.663
508,13.4240247813937,1020,1018.8868595070321,514,6.345373981961081,0.664
506,13.591784624430465,1020,1018.8893944576562,513,5.742901941097329,0.665
504,13.702246163638971,1020,1018.8919293000126,512,5.079458088073533,0.666
505,13.570040080215287,1020,1018.8944640218683,511,4.3677795080614334,0.667
507,13.39060794899641,1020,1018.8969986109959,510,3.6221229386106986,0.668
509,13.077814593457788,1020,1018.8995330551746,510,2.8577237393671036,0.669
510,12.765394770642448,1020,1018.90206734219,508,2.090208796110701,0.67
504,13.037657175541126,1020,1018.9046014598338,507,1.334994594342927,0.671
507,12.863453825607259,1020,1018.9071353959038,507,0.606701488327308,0.672
516,12.351076301956542,1020,1018.9096691382045,506,-0.08138672885671702,0.673
519,11.781235149178128,1020,1018.9122026745475,505,-0.717792885368535,0.674
520,11.379096274110642,1020,1018.9147359927509,505,-1.2932264721928424,0.675
518,11.65608723516537,1020,1018.9172690806403,504,-1.8008594715244812,0.676
515,11.732894209634729,1020,1018.9198019260483,504,-2.2364886343440222,0.677
515,10.635881907311811,1020,1018.9223345168156,503,-2.598579080477267,0.678
515,9.733623338436248,1020,1018.9248668407903,502,-2.8881876319470874,0.679
513,9.413830091733868,1020,1018.9273988858284,502,-3.1087676419551036,0.68
499,9.380958955534169,1020,1018.9299306397937,502,-3.2658616773401015,0.681
492,9.303383403118755,1020,1018.9324620905576,503,-3.3666955808596337,0.682
496,9.145235045370784,1020,1018.9349932259992,504,-3.4196964884436296,0.683
503,8.949888729722364,1020,1018.9375240340054,503,-3.433964858095166,0.684
507,8.752567366209288,1020,1018.9400545024708,501,-3.418732204410801,0.685
515,8.478603426886426,1020,1018.9425846192993,501,-3.382830789699518,0.686
524,8.283175698712196,1020,1018.945114372403,502,-3.334193197175844,0.687
531,8.16943512588959,1020,1018.9476437497036,502,-3.27939522765444,0.688
528,8.096985206622461,1020,1018.9501727391315,502,-3.223257854224054,0.689
519,8.090899465885402,1020,1018.9527013286263,503,-3.1685299471755055,0.69
508,8.10234895908141,1020,1018.9552295061369,503,-3.115678099258962,0.691
499,7.954970935129704,1020,1018.957757259622,503,-3.062810177960789,0.692
498,7.863367745359772,1020,1018.9602845770503,503,-3.005754373088158,0.693
517,7.841893402258097,1020,1018.9628114464001,503,-2.938305768075628,0.694
527,7.923391508164822,1020,1018.9653378556593,503,-2.8526391364126042,0.695
527,7.9833951451780685,1020,1018.9678637928253,502,-2.7398716218290824,0.696
520,7.842047863860046,1020,1018.9703892459049,502,-2.590743967774216,0.697
518,7.758482640928608,1020,1018.9729142029148,502,-2.3963758706228435,0.698
511,7.86462665362486,1020,1018.9754386518819,502,-2.149041909068179,0.699
484,7.807324274636315,1020,1018.977962580843,502,-1.842910636314317,0.7
495,7.643546914629491,1020,1018.9804859778449,502,-1.4746905536844928,0.701
491,7.526077112620607,1020,1018.9830088309438,502,-1.0441318266209563,0.702
499,7.4770965560035325,1020,1018.985531128206,502,-0.554341318680061,0.703
508,7.440429768851948,1020,1018.988052857708,504,-0.011881068772356162,0.704
513,7.37575221383217,1020,1018.9905740075367,504,0.5733633487970007,0.705
517,7.390096602546491,1020,1018.99309456579,505,1.1885396810395752,0.706
519,7.214631094870152,1020,1018.9956145205767,506,1.8183885890176796,0.707
520,6.906401189914554,1020,1018.9981338600171,507,2.445969445605812,0.708
521,6.672251134313003,1020,1019.0006525722426,507,3.0535063581650155,0.709
517,6.491015326515902,1020,1019.0031706453967,507,3.623303584659931,0.71
512,6.422936560959114,1020,1019.0056880676341,508,4.138678448495837,0.711
513,6.385633089240424,1020,1019.0082048271213,509,4.584860643353631,0.712
511,6.150788280897856,1020,1019.0107209120366,509,4.949807582273396,0.713
515,5.792747239079192,1020,1019.0132363105696,510,5.224886382166362,0.714
516,5.563476786614533,1020,1019.0157510109212,510,5.405376201723018,0.715
512,5.474733335781389,1020,1019.0182650013045,510,5.4907516524194575,0.716
512,5.480852037213248,1020,1019.0207782699441,510,5.48471912884862,0.717
508,5.2971117048566,1020,1019.0232908050767,510,5.394992389094712,0.718
504,5.116962100179457,1020,1019.0258025949503,510,5.232810427216126,0.719
507,5.009352706830209,1020,1019.028313627825,509,5.012218714892918,0.72
511,4.797890136598718,1020,1019.0308238919735,508,4.749153752789591,0.721
512,4.616860164465438,1020,1019.0333333756804,507,4.460389603243417,0.722
501,4.593738911904104,1020,1019.0358420672429,506,4.16242126656278,0.723
507,4.43997876808557,1020,1019.0383499549704,505,3.870370061630196,0.724
511,4.497541269988963,1020,1019.0408570271853,505,3.596997917168016,0.725
511,4.0404721638768955,1020,1019.0433632722235,504,3.3519098222328823,0.726
512,3.717503599644961,1020,1019.0458686784337,504,3.141007591540089,0.727
510,3.4641906223287116,1020,1019.0483732341778,504,2.966235670191872,0.728
511,3.1928412024877173,1020,1019.0508769278309,504,2.8256332999044127,0.729
513,3.199123212657858,1020,1019.0533797477821,504,2.7136792499032967,0.73
515,3.2065530541660903,1020,1019.0558816824338,505,2.621887719742316,0.731
516,3.1478783385683164,1020,1019.0583827202028,507,2.5395892720923117,0.732
515,3.022062382002491,1020,1019.0608828495189,507,2.4548116678280065,0.733
511,2.837572859151464,1020,1019.0633820588265,507,2.3551663810388335,0.734
511,2.6650782952495184,1020,1019.0658803365841,507,2.2286513157764185,0.735
512,2.5883479691085602,1020,1019.068377671264,506,2.064299439813297,0.736
513,2.592845537075586,1020,1019.0708740513528,505,1.8526328684585778,0.737
512,2.6395132236021386,1020,1019.0733694653513,503,1.585916254067936,0.738
506,2.7651133634548106,1020,1019.0758639017745,502,1.2582358944536398,0.739
509,2.831420904143746,1020,1019.0783573491517,501,0.8654559581248377,0.74
515,2.800700036364057,1020,1019.0808497960261,500,0.4051161275256765,0.741
515,2.8247492027415397,1020,1019.0833412309548,499,-0.1236659568298746,0.742
516,2.8179999746681688,1020,1019.0858316425097,499,-0.7202375013436052,0.743
511,3.035969785091783,1020,1019.0883210192769,500,-1.3823714632851636,0.744
507,3.3604704384462827,1020,1019.0908093498583,500,-2.106146212538153,0.745
504,3.33872840814676,1020,1019.0932966228702,499,-2.885771443173451,0.746
505,3.373745691841111,1020,1019.0957828269434,499,-3.713407129978747,0.747
511,3.433820498768832,1020,1019.0982679507242,498,-4.579030145779319,0.748
516,3.3018656993527453,1020,1019.1007519828745,497,-5.47039983506179,0.749
514,3.2549587947944274,1020,1019.103234912071,496,-6.373162222346174,0.75
513,3.262174971566809,1020,1019.1057167270064,494,-7.271115635329308,0.751
517,3.4156780470339347,1020,1019.1081974163894,492,-8.14664124893385,0.752
511,3.6975964566596766,1020,1019.1106769689445,492,-8.981283861119932,0.753
509,3.938131544863063,1020,1019.1131553734126,491,-9.756454694533048,0.754
510,3.9646827826521576,1020,1019.115632618551,491,-10.45422099456597,0.755
507,4.179526160180613,1020,1019.1181086931342,490,-11.058145060991123,0.756
510,4.343038361806528,1020,1019.1205835859528,489,-11.55413427874455,0.757
511,4.276769046973119,1020,1019.1230572858135,488,-11.931260956948508,0.758
512,4.248329872561867,1020,1019.1255297815395,487,-12.182506736316297,0.759
513,4.274159942871421,1020,1019.1280010619706,488,-12.305383787211909,0.76
512,4.281644558927412,1020,1019.1304711159631,487,-12.302386753510977,0.761
515,4.411832861826581,1020,1019.1329399323894,487,-12.181235943560312,0.762
517,4.524803416374363,1020,1019.1354075001385,487,-11.954882069865008,0.763
518,4.589614980574817,1020,1019.137873808117,488,-11.641254403930727,0.764
514,4.479197699661265,1020,1019.1403388452485,488,-11.262747231184775,0.765
513,4.480263085449425,1020,1019.1428026004736,489,-10.845453527634449,0.766
511,4.4878154409710715,1020,1019.1452650627501,489,-10.418168265056309,0.767
497,4.4879369569187935,1020,1019.1477262210536,489,-10.01119503305747,0.768
487,4.412296050025314,1020,1019.150186064377,489,-9.654998422090117,0.769
508,4.4227409378962435,1020,1019.1526445817307,489,-9.378752091727598,0.77
512,4.3839832416594735,1020,1019.1551017621431,490,-9.20884066855605,0.771
508,4.236903936180793,1020,1019.1575575946603,490,-9.167383860063966,0.772
507,4.118140301302578,1020,1019.1600120683455,491,-9.270862627014775,0.773
509,4.112055128157204,1020,1019.1624651722794,491,-9.528937053932868,0.774
511,4.0268771212442465,1020,1019.1649168955604,492,-9.943550105977753,0.775
519,4.012609774349036,1020,1019.1673672273049,493,-10.508407594318356,0.776
526,4.0248911380004815,1020,1019.1698161566472,491,-11.208909691189753,0.777
524,3.946051473284857,1020,1019.172263672739,490,-12.02258118035617,0.778
513,3.9561546491713155,1020,1019.1747097647498,488,-12.920006701997313,0.779
498,3.930332930248774,1020,1019.1771544218676,484,-13.866228409372603,0.78
500,3.9828799606450955,1020,1019.1795976332991,483,-14.82251527416182,0.781
509,3.916093207078329,1020,1019.1820393882698,481,-15.748375005758321,0.782
514,3.920934085821223,1020,1019.1844796760241,479,-16.603658040023745,0.783
509,3.9699601896719994,1020,1019.1869184858253,478,-17.35060074755954,0.784
513,4.010703239257363,1020,1019.1893558069562,478,-17.955670156043777,0.785
518,4.043287143956493,1020,1019.1917916287191,479,-18.39110121154586,0.786
519,4.119889903670616,1020,1019.1942259404357,479,-18.63605478649586,0.787
515,4.116789360404079,1020,1019.1966587314466,479,-18.677363404626625,0.788
512,4.009740854000401,1020,1019.1990899911114,479,-18.509865067389995,0.789
509,3.9169254931182214,1020,1019.2015197088083,480,-18.136350126002004,0.79
508,3.9446387022786293,1020,1019.2039478739346,481,-17.56716268452076,0.791
508,4.056761555624536,1020,1019.2063744759064,482,-16.819508851704967,0.792
511,4.174799186649171,1020,1019.2087995041591,482,-15.916530123746137,0.793
511,3.99087909805882,1020,1019.211222948147,483,-14.886200939111424,0.794
509,3.5946085207553584,1020,1019.2136447973442,484,-13.760105780931312,0.795
512,3.554591242221715,1020,1019.2160650412441,485,-12.572145725306743,0.796
512,3.5588472863130556,1020,1019.2184836693598,486,-11.357219690506417,0.797
512,3.518947762036811,1020,1019.2209006712235,488,-10.149922780347033,0.798
512,3.550861325823247,1020,1019.2233160363878,489,-8.983302403110194,0.799
514,3.514712543029161,1020,1019.225729754425,489,-7.8877109217663826,0.8
514,3.588770890238942,1020,1019.2281418149271,490,-6.889790229693745,0.801
510,3.4353422352306917,1020,1019.2305522075069,492,-6.011619009198164,0.802
511,3.2101527726919334,1020,1019.2329609217975,492,-5.270049082542447,0.803
511,3.0153759960316315,1020,1019.2353679474534,492,-4.67625397727734,0.804
508,3.0358960817264813,1020,1019.2377732741495,494,-4.235509452143955,0.805
511,2.8450539579202774,1020,1019.2401768915818,494,-3.9472209739816426,0.806
513,2.6171461342642703,1020,1019.2425787894665,494,-3.8052065242665964,0.807
514,2.602837920117863,1020,1019.2449789575419,495,-3.798233724604714,0.808
515,2.563199971903456,1020,1019.2473773855675,494,-3.910796709900023,0.809
515,2.544128096160379,1020,1019.2497740633237,492,-4.124100196729971,0.81
517,2.5483570930598254,1020,1019.2521689806124,491,-4.417197590162338,0.811
515,2.487826552559595,1020,1019.2545621272568,490,-4.768210884643559,0.812
513,2.3538887860970896,1020,1019.2569534931018,490,-5.155548240619311,0.813
509,2.3722574696427148,1020,1019.2593430680137,490,-5.559034442183541,0.814
506,2.4436526337748368,1020,1019.26173084188,489,-5.960879192270711,0.815
504,2.410322732356452,1020,1019.2641168046094,487,-6.346423930352507,0.816
504,2.3718145618170614,1020,1019.2665009461322,487,-6.704625735200108,0.817
506,2.4292471053596034,1020,1019.2688832563987,488,-7.028256748395251,0.818
508,2.5562827892773434,1020,1019.2712637253809,489,-7.313821212534892,0.819
513,2.562057594356063,1020,1019.2736423430725,489,-7.561218475951819,0.82
513,2.527220487183484,1020,1019.2760190994887,488,-7.77320327031091,0.821
513,2.5649773277992427,1020,1019.2783939846669,488,-7.954708035493054,0.822
515,2.6010482474276624,1020,1019.2807669886666,488,-8.112094903282868,0.823
512,2.606625928950287,1020,1019.28313810157,488,-8.25240089362846,0.824
506,2.612661744308783,1020,1019.2855073134807,488,-8.382632964793276,0.825
512,2.5812810295961244,1020,1019.2878746145253,488,-8.509161031575404,0.826
514,2.5697489290263498,1020,1019.2902399948522,487,-8.637246213678667,0.827
515,2.5625971354473394,1020,1019.2926034446324,487,-8.770728017890493,0.828
513,2.6075418566467676,1020,1019.2949649540602,487,-8.911878896814697,0.829
514,2.6649803058699892,1020,1019.2973245133522,487,-9.061419409536649,0.83
511,2.610978681152991,1020,1019.2996821127473,485,-9.218673062523003,0.831
510,2.6736581050915027,1020,1019.3020377425065,484,-9.381826918039623,0.832
511,2.6887223574786483,1020,1019.3043913929133,484,-9.548253321745698,0.833
511,2.781079827363023,1020,1019.3067430542739,483,-9.714842920239377,0.834
510,2.7175629470241027,1020,1019.3090927169175,483,-9.87830272594526,0.835
506,2.6989306057657303,1020,1019.3114403711967,484,-10.035385474418709,0.836
511,2.6758209928133425,1020,1019.3137860074868,485,-10.18303485621186,0.837
515,2.6135927770568155,1020,1019.3161296161862,484,-10.318450588121678,0.838
515,2.590422251446997,1020,1019.3184711877167,483,-10.439092484040573,0.839
511,2.5769895030464967,1020,1019.320810712523,485,-10.542650526193128,0.84
513,2.541142122254882,1020,1019.3231481810732,485,-10.627009272820706,0.841
504,2.401723371449732,1020,1019.3254835838594,483,-10.690232224065435,0.842
504,2.268778519243762,1020,1019.3278169113975,484,-10.730585472326394,0.843
512,2.2032355245367587,1020,1019.3301481542272,483,-10.746609850708728,0.844
510,2.194683911983217,1020,1019.3324773029123,483,-10.737239026988263,0.845
513,2.209833343958002,1020,1019.3348043480397,483,-10.701950886718613,0.846
513,2.2307721999761543,1020,1019.3371292802208,482,-10.640932621594754,0.847
511,2.251205345024573,1020,1019.3394520900902,482,-10.555236119965693,0.848
510,2.1646549746909227,1020,1019.3417727683068,482,-10.446899706297993,0.849
511,2.2067102564203123,1020,1019.3440913055529,483,-10.319015668782637,0.85
509,2.2614740434594256,1020,1019.3464076925347,483,-10.175730231125945,0.851
510,2.34105847257795,1020,1019.3487219199824,483,-10.022171631337175,0.852
508,2.351173381545306,1020,1019.3510339786494,483,-9.86430969369858,0.853
508,2.4248617076068983,1020,1019.3533438593131,483,-9.70875495634895,0.854
512,2.603884664570051,1020,1019.3556515527744,483,-9.56250764292662,0.855
508,2.589900243404183,1020,1019.3579570498578,483,-9.432668251892824,0.856
513,2.8681200095354478,1020,1019.3602603414124,483,-9.326123498638491,0.857
519,3.1494744876274443,1020,1019.3625614183115,484,-9.249224081374082,0.858
511,3.373667041143723,1020,1019.3648602714525,484,-9.207473741164106,0.859
509,3.436515593205304,1020,1019.3671568917566,484,-9.205250914146406,0.86
507,3.5614977423499132,1020,1019.3694512701691,484,-9.245582934573653,0.861
511,3.7307110933148597,1020,1019.371743397659,483,-9.329987053411191,0.862
511,3.8384222765047618,1020,1019.3740332652201,482,-9.458383301102131,0.863
513,3.8137813536923066,1020,1019.3763208638698,482,-9.629074150619802,0.864
515,3.759844867813246,1020,1019.3786061846495,481,-9.838778516451235,0.865
511,3.7722034111933986,1020,1019.3808892186257,481,-10.082705545147729,0.866
511,3.7413194782330152,1020,1019.3831699568896,481,-10.35465751899378,0.867
513,3.633945095780108,1020,1019.3854483905575,481,-10.647159548289919,0.868
514,3.524200385594681,1020,1019.3877245107706,481,-10.951623959752544,0.869
513,3.598716194632673,1020,1019.3899983086944,480,-11.25856649551084,0.87
515,3.6490362452650946,1020,1019.3922697755202,481,-11.55789739935125,0.871
513,3.6204395368712072,1020,1019.3945389024643,482,-11.839312324849475,0.872
511,3.579450155808894,1020,1019.3968056807689,482,-12.09280522135391,0.873
513,3.576617172031668,1020,1019.3990701017015,481,-12.309315932010154,0.874
518,3.6639145511920757,1020,1019.4013321565553,480,-12.48150653350499,0.875
515,3.8717123246011496,1020,1019.4035918366499,479,-12.604632838483983,0.876
515,4.015246285778429,1020,1019.4058491333303,478,-12.677446114783075,0.877
518,4.135951893542641,1020,1019.4081040379674,476,-12.70303223801619,0.878
522,4.154969313703745,1020,1019.4103565419578,475,-12.689477201338315,0.879
513,4.0946452112505165,1020,1019.4126066367235,475,-12.650243180895242,0.88
496,4.120082768933028,1020,1019.4148543137126,474,-12.604150677754307,0.881
496,4.139150123261087,1020,1019.4170995643995,474,-12.574889842184916,0.882
499,4.208575060579162,1020,1019.419342380284,475,-12.590025284588425,0.883
507,4.117161805289044,1020,1019.4215827528924,476,-12.679508971291977,0.884
503,4.18408276150946,1020,1019.4238206737768,477,-12.87376963988818,0.885
498,4.177065354592526,1020,1019.4260561345159,478,-13.201497752693285,0.886
505,4.1493467901846355,1020,1019.4282891267148,479,-13.687285053811513,0.887
507,4.146761244108162,1020,1019.430519642006,478,-14.34930153948283,0.888
512,4.2065978830734085,1020,1019.4327476720478,478,-15.197197226586626,0.889
512,4.182394647804975,1020,1019.4349732085257,476,-16.230401941073833,0.89
511,4.245110259771874,1020,1019.4371962431514,475,-17.436966998067923,0.891
512,4.463349949294545,1020,1019.4394167676633,473,-18.793053562038086,0.892
513,4.606202709860043,1020,1019.4416347738256,472,-20.26312905168862,0.893
516,4.586601089535599,1020,1019.4438502534294,472,-21.80088887609339,0.894
515,4.588961669373815,1020,1019.4460631982924,471,-23.350876884826267,0.895
511,4.60270998993005,1020,1019.4482736002592,468,-24.850731792830807,0.896
512,4.60922948361177,1020,1019.4504814512006,464,-26.233935001130533,0.897
512,4.640752756944999,1020,1019.4526867430145,459,-27.432878108879503,0.898
517,4.755781308737414,1020,1019.454889467625,457,-28.382014357172995,0.899
523,4.787720927488436,1020,1019.4570896169829,455,-29.02082135940482,0.9
521,4.70173845726337,1020,1019.4592871830654,454,-29.296294832650958,0.901
520,4.709948541330761,1020,1019.461482157876,455,-29.164718078837208,0.902
516,4.71322885880147,1020,1019.4636745334454,454,-28.592504347664683,0.903
512,4.600150931382624,1020,1019.4658643018305,454,-27.555979869107993,0.904
510,4.434828193390162,1020,1019.4680514551145,455,-26.04005684881066,0.905
508,4.439012495987302,1020,1019.4702359854067,459,-24.03583497943503,0.906
507,4.209407807623129,1020,1019.4724178848436,463,-21.53726644945837,0.907
510,3.9698094263511585,1020,1019.4745971455885,467,-18.537119782742185,0.908
516,3.8212906968210443,1020,1019.4767737598316,474,-15.022573481171698,0.909
515,3.7876172585900822,1020,1019.4789477197895,483,-10.970850127941073,0.91
510,3.641033433552189,1020,1019.481119017706,493,-6.345354520599642,0.911
513,3.4333293314439723,1020,1019.4832876458521,500,-1.0927939425481876,0.912
516,3.3203196668092096,1020,1019.4854535965263,504,4.8582777816450875,0.913
512,3.319037145244799,1020,1019.4876168620543,510,11.597145088499516,0.914
506,3.319045344746418,1020,1019.4897774347886,515,19.228641363996495,0.915
501,3.3240653720821713,1020,1019.491935307109,519,27.8688550540866,0.916
505,3.359715636676792,1020,1019.4940904714225,525,37.638974741553426,0.917
511,3.37008329697318,1020,1019.4962429201631,535,48.657569407020496,0.918
515,3.3822879459060555,1020,1019.498392645792,548,61.0317151886423,0.919
515,3.3394906245743594,1020,1019.5005396407977,563,74.84745053881346,0.92
516,3.315657251914618,1020,1019.5026838976959,579,90.16007350390058,0.921
516,3.3420623070829767,1020,1019.5048254090296,596,106.98480381456157,0.922
518,3.3543893588288975,1020,1019.5069641673689,611,125.28833523962068,0.923
516,3.3955558260964276,1020,1019.5091001653112,627,144.9818085706122,0.924
509,3.4095966445825416,1020,1019.5112333954816,640,165.91573863607886,0.925
507,3.338664461309707,1020,1019.5133638505316,656,187.87741404249294,0.926
507,3.2144389687491106,1020,1019.5154915231409,677,210.5912324935131,0.927
510,3.1308848884666296,1020,1019.5176164060166,702,233.7223153320535,0.928
508,3.108727866433856,1020,1019.5197384918937,730,256.8835537332238,0.929
509,3.1062337462474794,1020,1019.5218577735349,758,279.64599001688754,0.93
514,3.0856614677160787,1020,1019.523974243731,785,301.5521657284352,0.931
514,3.0055827092436567,1020,1019.5260878953003,810,322.1318152774788,0.932
515,2.9013674555854316,1020,1019.5281987210891,831,340.919083793285,0.933
513,2.8933012222756442,1020,1019.530306713972,851,357.4703185111212,0.934
511,2.848858541502297,1020,1019.5324118668512,871,371.3814276633128,0.935
513,2.863543004192009,1020,1019.5345141726569,886,382.30381478091675,0.936
511,2.849734624626187,1020,1019.5366136243473,896,389.95797563953784,0.937
507,2.8541941735320386,1020,1019.5387102149083,900,394.1439904076019,0.938
510,2.807166700116193,1020,1019.5408039373541,895,394.74835398894953,0.939
512,2.865997231877094,1020,1019.5428947847266,886,391.74685077931304,0.94
513,2.7649994989195172,1020,1019.5449827500951,875,385.20346825654894,0.941
512,2.5862525110058057,1020,1019.5470678265568,860,375.26561943933297,0.942
513,2.4856493022116393,1020,1019.5491500072375,843,362.1561724559395,0.943
513,2.487342856994688,1020,1019.5512292852908,825,346.16294512410064,0.944
513,2.4439557618760444,1020,1019.5533056538992,804,327.6264082406504,0.945
512,2.4640360188703876,1020,1019.5553791062738,782,306.9263587448761,0.946
510,2.402172230440557,1020,1019.5574496356534,759,284.4682838404212,0.947
508,2.3583605108605905,1020,1019.559517235305,737,260.670051989903,0.948
505,2.239528243311038,1020,1019.5615818985237,716,235.94944928862205,0.949
503,2.1654425237340402,1020,1019.5636436186336,692,210.71294477973026,0.95
508,2.152904305703275,1020,1019.5657023889875,667,185.34593338287178,0.951
507,2.0664164046123448,1020,1019.567758202967,643,160.20458686908503,0.952
508,1.9782533727354603,1020,1019.5698110539819,619,135.60935053222295,0.953
511,1.9942733169773248,1020,1019.5718609354698,597,111.84005505564575,0.954
512,1.9481057905063024,1020,1019.5739078408959,575,89.13256466866824,0.955
510,1.9692329309145808,1020,1019.5759517637542,555,67.67685127697538,0.956
511,1.9352600154457178,1020,1019.5779926975678,532,47.616370035562085,0.957
513,1.886852114618933,1020,1019.5800306358877,511,29.048614332777607,0.958
512,1.8258553202596952,1020,1019.582065572294,494,12.026741872056185,0.959
514,1.810397535679362,1020,1019.5840975003947,479,-3.437822745207457,0.96
513,1.894227504434912,1020,1019.586126413826,465,-17.371900849415354,0.961
510,1.9328888025832462,1020,1019.5881523062525,454,-29.83629116524977,0.962
512,1.9450994113797995,1020,1019.5901751713672,443,-40.92084233723194,0.963
514,1.877594853963309,1020,1019.5921950028918,432,-50.73900721912226,0.964
513,1.9440075763323361,1020,1019.5942117945773,422,-59.42203141266443,0.965
513,1.9158457048853466,1020,1019.5962255402027,415,-67.11293388138117,0.966
514,1.9695481900541834,1020,1019.5982362335752,408,-73.96044097445444,0.967
512,1.9719421983996834,1020,1019.6002438685313,402,-80.11304181492916,0.968
511,1.9463769843185914,1020,1019.6022484389358,398,-85.71334354782701,0.969
507,1.9273580269408095,1020,1019.6042499386826,394,-90.89291579259195,0.97
512,1.9659371197930284,1020,1019.6062483616943,391,-95.76781927256732,0.971
513,1.9540937951345996,1020,1019.6082437019218,387,-100.43500800072157,0.972
511,1.97790280366557,1020,1019.6102359533452,383,-104.96977193324683,0.973
511,1.9701837357382315,1020,1019.6122251099737,378,-109.42434436526918,0.974
509,1.9364737238997782,1020,1019.6142111658455,372,-113.82773659558585,0.975
511,1.793139866805895,1020,1019.6161941150281,367,-118.18678721072266,0.976
511,1.7527959449660098,1020,1019.6181739516182,361,-122.48833354903401,0.977
514,1.686295678688957,1020,1019.6201506697421,355,-126.7023379156592,0.978
510,1.6576202629057044,1020,1019.6221242635543,348,-130.78573869029537,0.979
508,1.6485473082916087,1020,1019.624094727239,344,-134.6867523943569,0.98
510,1.650352664718003,1020,1019.6260620550102,340,-138.34933160472542,0.981
511,1.9202377465012084,1020,1019.6280262411105,335,-141.7174875359594,0.982
512,2.2616158085361704,1020,1019.6299872798122,332,-144.73921306189814,0.983
510,2.4435791279382393,1020,1019.6319451654172,329,-147.36978663167974,0.984
507,2.464146153563156,1020,1019.633899892257,327,-149.57429505126225,0.985
507,2.4897515904687113,1020,1019.6358514546932,327,-151.3292799542702,0.986
512,2.588536155245758,1020,1019.6377998471166,327,-152.62348480732618,0.987
511,2.9583184236023725,1020,1019.6397450639479,327,-153.4577501066028,0.988
507,3.524183234820071,1020,1019.6416870996372,327,-153.84416633648695,0.989
511,3.823971022236338,1020,1019.6436259486645,329,-153.80464098253697,0.99
516,3.8361815133004877,1020,1019.6455616055391,330,-153.36906466965956,0.991
513,3.847365439630629,1020,1019.6474940648,332,-152.57327227165538,0.992
512,3.906237263891465,1020,1019.6494233210155,335,-151.45698767496415,0.993
513,4.035654689234897,1020,1019.651349368783,333,-150.06191524068328,0.994
507,4.238278659024084,1020,1019.6532722027296,332,-148.4300978109247,0.995
510,4.365674373167753,1020,1019.6551918175114,334,-146.6026061392623,0.996
513,4.381470100685484,1020,1019.657108207814,335,-144.61856974893303,0.997
513,4.385179838112467,1020,1019.6590213683521,336,-142.5145171570414,0.998
515,4.411679886549506,1020,1019.6609312938695,339,-140.32396990631594,0.999
511,4.472862915007177,1020,1019.6628379791391,341,-138.07722751553953,1.0
510,4.501327250077356,1020,1019.6647414189638,343,-135.8012838123018,1.001
511,4.5681610780455335,1020,1019.6666416081748,345,-133.51982422759352,1.002
512,4.598534891318879,1020,1019.6685385416336,347,-131.2532650488486,1.003
511,4.685165681879541,1020,1019.6704322142305,349,-129.01880799576548,1.004
512,4.755366153633147,1020,1019.6723226208851,352,-126.83049720911117,1.005
525,4.735711752070211,1020,1019.6742097565461,355,-124.69928110472168,1.006
528,4.746067015237466,1020,1019.6760936161913,358,-122.63309698038806,1.007
522,4.77148966559814,1020,1019.677974194828,361,-120.63700801646071,1.008
513,4.780382980570755,1020,1019.6798514874927,362,-118.71342567564386,1.009
506,4.769327259738997,1020,1019.6817254892508,362,-116.86244236378485,1.01
504,4.741970346817598,1020,1019.6835961951974,364,-115.08228067044998,1.011
491,4.712096031099034,1020,1019.6854636004568,367,-113.36984240718898,1.012
482,4.74034676431858,1020,1019.6873277001819,367,-111.72131994505385,1.013
492,4.749504030675774,1020,1019.6891884895535,366,-110.13281701472185,1.014
509,4.719784308591015,1020,1019.6910459637829,367,-108.60091557677578,1.015
513,4.746020745122321,1020,1019.6929001181111,369,-107.12312105966139,1.016
517,4.674882947175524,1020,1019.6947509478086,371,-105.69812512874137,1.017
518,4.651724977600591,1020,1019.6965984481759,372,-104.32584552414635,1.018
522,4.692409421787778,1020,1019.6984426145424,374,-103.00723194183753,1.019
521,4.73309198894602,1020,1019.700283442267,375,-101.7438579739273,1.02
513,4.651673861388883,1020,1019.7021209267388,377,-100.53734690070029,1.021
509,4.8270134234278395,1020,1019.7039550633759,380,-99.38870207363,1.022
510,5.022821828494372,1020,1019.7057858476275,383,-98.29762955472022,1.023
508,5.000416482545849,1020,1019.7076132749727,382,-97.26194836216341,1.024
508,5.046524703685268,1020,1019.709437340921,383,-96.2771777068804,1.025
508,5.134512395719085,1020,1019.7112580410113,385,-95.33636958969164,1.026
513,5.133531441863208,1020,1019.7130753708121,385,-94.43022333884085,1.027
519,5.157464607472339,1020,1019.714889325922,384,-93.54748265034868,1.028
516,5.150238203932122,1020,1019.7166999019688,384,-92.67557974908112,1.029
515,5.2282893231518175,1020,1019.7185070946108,383,-91.80145864643235,1.03
510,5.308874474067836,1020,1019.720310899536,384,-90.91248534961716,1.031
511,5.166883577913273,1020,1019.7221113124616,385,-89.9973428372531,1.032
513,5.17496186140704,1020,1019.7239083291344,386,-89.0468144372108,1.033
512,5.430973693796121,1020,1019.7257019453301,387,-88.05437769255562,1.034
509,5.886954411796092,1020,1019.7274921568538,387,-87.01655604940761,1.035
510,6.06123386316862,1020,1019.72927895954,389,-85.93300297051753,1.036
510,5.924984448420842,1020,1019.7310623492532,390,-84.80632058307117,1.037
512,5.794578408626197,1020,1019.7328423218879,392,-83.64164265384363,1.038
515,5.928009683098069,1020,1019.7346188733678,395,-82.44603854803688,1.039
514,6.438718568850482,1020,1019.7363919996466,397,-81.2278176544312,1.04
511,7.151886563571297,1020,1019.7381616967074,399,-79.99582774279094,1.041
513,7.45103333917359,1020,1019.739927960563,400,-78.75884109856163,1.042
515,7.364699741372882,1020,1019.7416907872554,400,-77.52510668465506,1.043
516,7.236067267840628,1020,1019.7434501728559,400,-76.30211707891897,1.044
512,7.154565058062869,1020,1019.745206113466,401,-75.09660201346033,1.045
502,7.087382910454602,1020,1019.7469586052167,401,-73.91472439648777,1.046
500,7.21957852623669,1020,1019.7487076442683,402,-72.76242647668947,1.047
511,7.312698545505132,1020,1019.7504532268106,402,-71.64585626851377,1.048
518,7.339338603196977,1020,1019.7521953490625,403,-70.57179740649416,1.049
516,7.335903598863729,1020,1019.7539340072724,404,-69.54802816675245,1.05
512,7.436668317351755,1020,1019.7556691977186,404,-68.58354631721608,1.051
510,7.496478694503462,1020,1019.757400916709,406,-67.68861418370673,1.052
510,7.527691256910422,1020,1019.759129160582,407,-66.87460079525991,1.053
515,7.501453180547163,1020,1019.760853925706,408,-66.1536227050416,1.054
516,7.464872968710727,1020,1019.7625752084789,408,-65.53800901965086,1.055
518,7.499268849950608,1020,1019.7642930053287,410,-65.03963640248668,1.056
528,7.570876398167252,1020,1019.7660073127129,411,-64.66919487916327,1.057
535,7.619162348320093,1020,1019.7677181271185,411,-64.43545466902508,1.058
535,7.688727285173171,1020,1019.7694254450623,412,-64.34460671604192,1.059
524,7.833325343753567,1020,1019.7711292630904,412,-64.39974327933734,1.06
510,7.901911945124493,1020,1019.772829577779,411,-64.60052942243578,1.061
498,7.883935515976313,1020,1019.7745263857344,409,-64.9430930512948,1.062
474,7.8587760599523975,1020,1019.7762196835918,407,-65.42013367215499,1.063
467,8.014138024503936,1020,1019.7779094680161,407,-66.02122391946293,1.064
472,8.133423460891832,1020,1019.7795957357009,407,-66.7332597840709,1.065
493,8.296784144991591,1020,1019.7812784833689,406,-67.5410087784995,1.066
509,8.345311768425175,1020,1019.7829577077712,403,-68.42770743315755,1.067
512,8.434689035836788,1020,1019.7846334056887,403,-69.3756650551465,1.068
517,8.609797701829901,1020,1019.786305573932,402,-70.36683711038614,1.069
518,8.773618490657375,1020,1019.7879742093418,402,-71.38334038610107,1.07
519,8.776969364748602,1020,1019.7896393087875,401,-72.40789396209752,1.071
518,8.695090136589151,1020,1019.7913008691688,399,-73.4241819269348,1.072
514,8.899705215917608,1020,1019.7929588874152,398,-74.41714177140273,1.073
515,9.475795870543754,1020,1019.7946133604854,397,-75.3731857454244,1.074
520,9.726583011929591,1020,1019.7962642853671,397,-76.28036377458241,1.075
519,9.816765980731427,1020,1019.7979116590776,396,-77.12847824094399,1.076
515,9.840037771721084,1020,1019.7995554786634,395,-77.90916259603488,1.077
518,9.90375354527049,1020,1019.8011957412003,395,-78.61593498133236,1.078
515,9.918511631412331,1020,1019.8028324437936,393,-79.2442332105893,1.079
517,9.862680308957847,1020,1019.8044655835773,392,-79.79142915655261,1.08
518,9.76785406612452,1020,1019.8060951577148,391,-80.25681093173642,1.081
517,9.69983081370638,1020,1019.8077211633989,390,-80.64151339261284,1.082
518,9.488594434204547,1020,1019.8093435978516,389,-80.94837467837,1.083
521,9.167653097328643,1020,1019.8109624583238,389,-81.18170074633859,1.084
520,8.824361493057763,1020,1019.8125777420959,390,-81.34693136424517,1.085
515,8.709032110323898,1020,1019.8141894464774,390,-81.45021806560038,1.086
513,8.8185048134298,1020,1019.8157975688072,390,-81.49794340336229,1.087
505,8.7154043171529,1020,1019.8174021064528,391,-81.49622655724625,1.088
505,8.349155188763513,1020,1019.8190030568103,392,-81.45046930334011,1.089
504,8.488206337613649,1020,1019.8206004173035,391,-81.36499706623661,1.09
510,9.15708764045853,1020,1019.8221941853853,391,-81.24284184503499,1.091
519,9.914878440953133,1020,1019.823784358538,391,-81.0856978599855,1.092
525,10.415239058234048,1020,1019.825370934273,391,-80.89405963180783,1.093
526,10.460261995925363,1020,1019.8269539101311,391,-80.66752996611817,1.094
513,10.389808486096062,1020,1019.8285332836822,390,-80.40526472911105,1.095
508,11.16511808943246,1020,1019.8301090525251,390,-80.10650338882736,1.096
491,13.078679234774903,1020,1019.831681214288,389,-79.77112022770653,1.097
484,14.523171622648082,1020,1019.8332497666274,389,-79.40012322338123,1.098
494,15.146387052467754,1020,1019.8348147072293,389,-78.99602836401834,1.099
504,15.558992330510693,1020,1019.8363760338084,389,-78.56304796653001,1.1
511,15.982135465693725,1020,1019.8379337441083,390,-78.10705198832248,1.101
508,16.300632763095262,1020,1019.8394878359013,391,-77.63528929106045,1.102
511,16.552791490558292,1020,1019.8410383069877,393,-77.15588787669199,1.103
513,16.470811112459092,1020,1019.842585155197,393,-76.6771846185693,1.104
513,16.777304874367196,1020,1019.8441283783874,395,-76.20696075125018,1.105
515,17.11999907997113,1020,1019.845667974446,396,-75.75167520635004,1.106
519,17.3517420665253,1020,1019.8472039412887,396,-75.31579186813114,1.107
519,17.351433481255906,1020,1019.8487362768607,398,-74.90128882682765,1.108
519,17.51332406310142,1020,1019.8502649791363,398,-74.50741843307988,1.109
518,17.742508854353243,1020,1019.8517900461194,398,-74.13075761652607,1.11
516,17.819742236367002,1020,1019.8533114758426,396,-73.76555026892466,1.111
518,18.013865392266805,1020,1019.8548292663673,395,-73.40430079988464,1.112
527,18.35692734784217,1020,1019.8563434157833,393,-73.03853675069186,1.113
561,18.460114266999838,1020,1019.8578539222077,392,-72.65962777284518,1.114
580,18.742878150416807,1020,1019.8593607837867,393,-72.2595367667735,1.115
566,19.085772163291093,1020,1019.8608639986948,393,-71.83139060317811,1.116
534,19.131894355028244,1020,1019.8623635651353,395,-71.36979062021271,1.117
514,19.139543756681544,1020,1019.8638594813398,397,-70.87082960558834,1.118
510,18.971338622758335,1020,1019.8653517455683,398,-70.33183210751532,1.119
465,18.96717588715905,1020,1019.8668403561094,399,-69.75087897382869,1.12
403,19.25319619351067,1020,1019.8683253112797,400,-69.12620822794479,1.121
432,19.480877324961526,1020,1019.8698066094241,402,-68.455600406966,1.122
473,19.898987181963708,1020,1019.871284248916,404,-67.73585850501945,1.123
487,20.185053571258262,1020,1019.8727582281583,405,-66.96248211888556,1.124
478,20.751120200024925,1020,1019.874228545583,405,-66.12961178024914,1.125
488,21.19509656886935,1020,1019.8756951996513,403,-65.23028222257672,1.126
493,21.62198132729376,1020,1019.877158188853,403,-64.25697597736544,1.127
512,22.048650751922796,1020,1019.8786175117059,403,-63.20242042938944,1.128
528,22.063867765352647,1020,1019.8800731667568,404,-62.0605336296377,1.129
532,22.645232573315866,1020,1019.8815251525805,405,-60.827404043405465,1.13
528,23.190699873148265,1020,1019.8829734677804,406,-59.502187058126296,1.131
515,24.00877351216719,1020,1019.8844181109882,406,-58.0878117294693,1.132
525,26.367368579636388,1020,1019.8858590808634,407,-56.59141014008713,1.133
531,29.032332714849538,1020,1019.8872963760931,409,-55.02440710209101,1.134
523,30.409379919878678,1020,1019.888729995393,412,-53.402240277698986,1.135
524,30.59623747722604,1020,1019.8901599375066,415,-51.743719441767894,1.136
531,30.8979027068328,1020,1019.8915862012058,416,-50.07007381063729,1.137
527,32.14286516795637,1020,1019.8930087852904,419,-48.403770662560035,1.138
536,34.663638869685656,1020,1019.894427688588,421,-46.767211289922386,1.139
541,36.15569952307184,1020,1019.8958429099542,423,-45.18142044013046,1.14
519,35.8903800609864,1020,1019.8972544482725,425,-43.66484408105081,1.141
509,35.20569354455646,1020,1019.8986623024538,427,-42.232358581336634,1.142
510,35.10688554219548,1020,1019.9000664714366,428,-40.894572693150664,1.143
526,35.574724947588656,1020,1019.9014669541874,428,-39.65747294009527,1.144
528,35.794746654575334,1020,1019.9028637496998,428,-38.52242528085626,1.145
496,35.56448400652268,1020,1019.9042568569947,427,-37.4865056061864,1.146
471,34.0637656248644,1020,1019.9056462751214,428,-36.543095423776165,1.147
468,32.91883932263247,1020,1019.9070320031565,428,-35.682653918967816,1.148
467,32.541351670438154,1020,1019.9084140402033,429,-34.893567469156416,1.149
479,32.387142805084196,1020,1019.9097923853933,428,-34.162982202704505,1.15
491,32.150963773050904,1020,1019.9111670378861,430,-33.47754096318797,1.151
483,32.58281677594484,1020,1019.9125379968691,431,-32.82396964459012,1.152
516,33.42471081494745,1020,1019.9139052615578,432,-32.18948658022985,1.153
538,33.73571303603735,1020,1019.9152688311956,433,-31.56203892973352,1.154
540,33.53029803451371,1020,1019.9166287050534,435,-30.930397139469843,1.155
552,33.20547099267179,1020,1019.9179848824297,436,-30.28415861792734,1.156
635,33.36051541463068,1020,1019.9193373626499,438,-29.61372235535347,1.157
649,33.697067742693385,1020,1019.9206861450666,438,-28.910295503387964,1.158
584,34.00093953019471,1020,1019.92203122906,438,-28.165979741117113,1.159
525,34.16214043509956,1020,1019.9233726140379,438,-27.37396075837888,1.16
484,34.33251835695657,1020,1019.9247102994347,438,-26.52879299212841,1.161
439,34.36285852401207,1020,1019.9260442847118,437,-25.626740687593877,1.162
359,34.109107785858306,1020,1019.9273745693582,436,-24.66611201659329,1.163
384,34.16368060454296,1020,1019.9287011528901,438,-23.647510555760096,1.164
443,33.726915740172586,1020,1019.9300240348508,440,-22.57393151286351,1.165
488,33.4236278471998,1020,1019.9313432148102,440,-21.450648909486258,1.166
522,33.47073670323876,1020,1019.9326586923654,442,-20.28486946948671,1.167
536,33.53892874742595,1020,1019.9339704671412,444,-19.08516155579799,1.168
515,33.69110120742467,1020,1019.9352785387892,446,-17.860697638718296,1.169
543,33.64581019673771,1020,1019.9365829069881,447,-16.620373833755746,1.17
531,33.50722419145391,1020,1019.9378835714426,448,-15.371887900990494,1.171
530,33.293218070843494,1020,1019.9391805318844,450,-14.120866265762546,1.172
519,32.46366614905513,1020,1019.9404737880716,452,-12.870131890021685,1.173
492,31.690544932301197,1020,1019.9417633397886,454,-11.61920008302401,1.174
488,30.832493502060647,1020,1019.9430491868472,455,-10.36407871174203,1.175
464,30.301685652722345,1020,1019.9443313290865,459,-9.09743073037361,1.176
450,29.95673768625569,1020,1019.9456097663722,460,-7.80912824900948,1.177
492,29.562377260813296,1020,1019.9468844985965,458,-6.487187093368323,1.178
502,29.5807600731254,1020,1019.9481555256782,456,-5.119019448187899,1.179
515,29.003943093935604,1020,1019.9494228475626,456,-3.6928858259577524,1.18
536,28.537878491921276,1020,1019.9506864642215,455,-2.199380031212204,1.181
532,27.799198487010294,1020,1019.9519463756532,456,-0.6327575768712548,1.182
541,25.412562015254636,1020,1019.953202581882,458,1.0080725183617223,1.183
540,22.663512278892014,1020,1019.9544550829581,460,2.7190322046448134,1.184
533,21.28712570077749,1020,1019.9557038789584,463,4.490911871001489,1.185
527,21.095300592814947,1020,1019.956948969986,467,6.309963289677166,1.186
510,20.70088066160093,1020,1019.9581903561706,472,8.158976506743446,1.187
499,19.353389152568,1020,1019.9594280376676,474,10.018706288609879,1.188
515,16.498447295555216,1020,1019.9606620146582,477,11.869471753963172,1.189
528,14.03082328199608,1020,1019.96189228735,479,13.69273806319925,1.19
525,12.897175391965183,1020,1019.9631188559773,481,15.47250158273917,1.191
526,12.537599188511425,1020,1019.9643417208002,483,17.196334281653392,1.192
528,12.228780904957251,1020,1019.9655608821049,483,18.855992182590963,1.193
527,11.7716602828578,1020,1019.966776340204,483,20.447550395374638,1.194
525,11.52468257317264,1020,1019.9679880954363,483,21.971087581541866,1.195
524,10.867552622638637,1020,1019.9691961481672,483,23.429998124186604,1.196
519,10.335476796315243,1020,1019.9704004987875,483,24.830052751296705,1.197
512,9.908049587975984,1020,1019.971601147714,483,26.178351960315638,1.198
513,9.606813200676665,1020,1019.9727980953885,484,27.482318919613103,1.199
512,9.304192094870137,1020,1019.9739913422782,486,28.748860089200427,1.2
511,9.006570418587291,1020,1019.9751808888759,488,29.983785578683378,1.201
510,8.12632365618736,1020,1019.9763667356997,490,31.19153316385364,1.202
513,6.986657324027155,1020,1019.977548883293,493,32.37518832738385,1.203
514,6.719956598766175,1020,1019.978727332225,495,33.536746364335855,1.204
511,6.638950867045136,1020,1019.9799020830907,496,34.67752831618066,1.205
507,6.612057559392098,1020,1019.9810731365102,499,35.79864430533928,1.206
509,6.192634996529935,1020,1019.9822404931289,501,36.90139681049735,1.207
510,5.811849299568214,1020,1019.983404153617,501,37.9875315493614,1.208
506,5.261041071426167,1020,1019.9845641186699,500,39.05927332268207,1.209
506,4.716285581368524,1020,1019.9857203890084,501,40.119125363081324,1.21
512,4.354997624205188,1020,1019.9868729653787,501,41.16945652119981,1.211
515,4.163855334249534,1020,1019.9880218485524,500,42.211941707326716,1.212
513,4.078224715758162,1020,1019.9891670393265,500,43.2469504291874,1.213
510,3.7725871715929657,1020,1019.9903085385224,500,44.27299285751777,1.214
510,4.040564378545463,1020,1019.9914463469865,501,45.28633091318027,1.215
508,4.195554299419216,1020,1019.9925804655902,502,46.28084261241968,1.216
505,4.35130255442226,1020,1019.9937108952302,504,47.248193345658215,1.217
507,4.347559174312947,1020,1019.9948376368282,506,48.17832331995874,1.218
512,4.262947517221989,1020,1019.995960691331,508,49.060213422024006,1.219
512,4.1094525971643225,1020,1019.9970800597105,510,49.8828498357108,1.22
508,4.380009385922049,1020,1019.9981957429629,511,50.63627730984875,1.221
510,4.714981888152979,1020,1019.9993077421088,513,51.312616118833695,1.222
510,5.105919897346439,1020,1020.0004160581933,513,51.90691971473265,1.223
511,5.252029091692048,1020,1020.0015206922861,514,52.4177676446886,1.224
513,5.2590250085887025,1020,1020.0026216454811,514,52.84751876605985,1.225
510,5.336284653444197,1020,1020.0037189188964,513,53.20218942858102,1.226
511,5.312800458879599,1020,1020.0048125136744,513,53.49096570808509,1.227
513,5.377421389474236,1020,1020.0059024309816,511,53.725403030770465,1.228
514,5.379712462822036,1020,1020.0069886720083,510,53.91840529709116,1.229
513,5.394586849335884,1020,1020.0080712379698,510,54.08310364439152,1.23
514,5.36659260644761,1020,1020.0091501301057,508,54.23176801671544,1.231
511,5.413796094413005,1020,1020.0102253496802,508,54.374880580636564,1.232
510,5.456086252710646,1020,1020.0112968979815,508,54.52047896951486,1.233
509,5.398129161803151,1020,1020.0123647763212,510,54.67384126907352,1.234
511,5.328764577756864,1020,1020.0134289860348,511,54.837537344758914,1.235
513,5.287589529693315,1020,1020.0144895284825,512,55.01181941270945,1.236
511,5.412037710892521,1020,1020.0155464050486,514,55.195277783331576,1.237
511,5.775948042590716,1020,1020.0165996171409,515,55.38565340739992,1.238
524,6.138854174147582,1020,1020.017649166191,515,55.580681713998764,1.239
530,6.230339519793977,1020,1020.0186950536536,516,55.778843565122315,1.24
525,6.316199274929916,1020,1020.0197372810072,515,55.979917655831514,1.241
520,6.355169694175151,1020,1020.0207758497542,515,56.185260449410734,1.242
515,6.265017095562088,1020,1020.0218107614202,515,56.39777914210737,1.243
510,6.212386485160986,1020,1020.022842017555,515,56.62160461614911,1.244
487,6.2112638295766835,1020,1020.0238696197322,513,56.861510728945596,1.245
489,6.23282890849723,1020,1020.0248935695491,512,57.12216104199337,1.246
487,6.198761319692756,1020,1020.0259138686262,511,57.407291470162114,1.247
500,6.2797899210004395,1020,1020.0269305186076,510,57.71895281970085,1.248
513,6.389182283890823,1020,1020.0279435211611,510,58.05693593150749,1.249
521,6.57026980574742,1020,1020.0289528779779,510,58.41848192897605,1.25
504,6.69689489602803,1020,1020.0299585907726,512,58.79834242559691,1.251
503,6.69207387719183,1020,1020.0309606612825,514,59.189204265319326,1.252
506,6.777640696666425,1020,1020.0319590912684,516,59.58243813624353,1.253
510,6.770517934851829,1020,1020.0329538825147,517,59.96908008428906,1.254
507,6.809897228728178,1020,1020.0339450368285,519,60.34091905875646,1.255
502,6.821469076115003,1020,1020.0349325560403,519,60.69154796422804,1.256
503,6.834971901077979,1020,1020.0359164420031,520,61.017241158110686,1.257
511,6.888487744718676,1020,1020.0368966965923,520,61.317545218277175,1.258
507,6.913932436974213,1020,1020.0378733217061,519,61.59550764436446,1.259
507,6.932764322693008,1020,1020.0388463192652,519,61.85751465957566,1.26
519,7.198107051320626,1020,1020.0398156912132,518,62.11275868250447,1.261
533,7.522823417431915,1020,1020.040781439517,516,62.372402502767805,1.262
531,7.640298795866055,1020,1020.041743566166,515,62.64854532597378,1.263
519,7.738470965347267,1020,1020.042702073173,514,62.953120690957455,1.264
518,7.867458059747419,1020,1020.043656962573,514,63.29686326887976,1.265
518,8.152107863639898,1020,1020.0446082364236,515,63.688468143859694,1.266
511,8.282806664420415,1020,1020.0455558968051,516,64.1340338843288,1.267
514,8.453504485721682,1020,1020.046499945819,518,64.63683554476096,1.268
514,8.466462469125274,1020,1020.0474403855892,519,65.19742431704073,1.269
515,8.69599940096644,1020,1020.0483772182615,521,65.81400552872871,1.27
513,9.094569511115196,1020,1020.0493104460047,523,66.48301266146859,1.271
508,9.815307586914962,1020,1020.0502400710093,524,67.19977593875294,1.272
507,10.0355951524159,1020,1020.051166095488,524,67.95918155267573,1.273
502,10.039924785694247,1020,1020.0520885216756,524,68.75623137266642,1.274
503,10.027656788650155,1020,1020.0530073518286,524,69.58643933387056,1.275
512,10.109888428603066,1020,1020.0539225882259,525,70.44603266808302,1.276
517,10.219637021482132,1020,1020.0548342331682,526,71.33195636918548,1.277
515,10.352174590629666,1020,1020.0557422889784,527,72.24170379331578,1.278
517,10.429770316806685,1020,1020.0566467580012,526,73.17301547511843,1.279
516,10.47278584171123,1020,1020.057547642603,526,74.12350421952459,1.28
515,10.433641368477254,1020,1020.0584449451723,526,75.09027721016379,1.281
516,10.308942164809176,1020,1020.059338668119,526,76.06963153738991,1.282
512,10.211013893238489,1020,1020.060228813875,527,77.05689343678985,1.283
510,10.258842210048106,1020,1020.0611153848938,529,78.0464515228352,1.284
496,10.24358678954311,1020,1020.0619983836507,531,79.03200240106241,1.285
491,10.180438883881745,1020,1020.0628778126427,533,80.00698889297665,1.286
503,10.083590064718397,1020,1020.0637536743886,535,80.9651745762446,1.287
516,9.696083377647035,1020,1020.0646259714297,536,81.90127101322808,1.288
531,9.351212157647009,1020,1020.0654947063283,538,82.81152065766051,1.289
543,9.246777228865302,1020,1020.0663598816684,539,83.69414010653381,1.29
533,9.258690887199013,1020,1020.0672215000549,540,84.549543745964,1.291
526,9.248882293366535,1020,1020.0680795641136,540,85.38029467667083,1.292
518,9.351792835659454,1020,1020.0689340764915,540,86.19076535750553,1.293
495,9.65682972660689,1020,1020.0697850398564,540,86.98653073229288,1.294
470,10.019502607534134,1020,1020.0706324568977,539,87.77355638109643,1.295
449,10.421623989030557,1020,1020.0714763303253,538,88.5572777548736,1.296
479,10.585353543826912,1020,1020.0723166628699,538,89.34168861453284,1.297
496,10.602238545229191,1020,1020.0731534572823,539,90.12856302323446,1.298
515,10.822506898882182,1020,1020.0739867163334,539,90.91692321181137,1.299
522,11.354007091070489,1020,1020.0748164428137,540,91.70283666562965,1.3
521,11.983194419169203,1020,1020.0756426395342,542,92.47958469521258,1.301
526,12.462075525185226,1020,1020.0764653093261,544,93.2381975503672,1.302
518,12.518874270481076,1020,1020.0772844550411,545,93.96830375459285,1.303
515,12.46590381238646,1020,1020.0781000795514,547,94.65919994292511,1.304
512,12.532324257551272,1020,1020.0789121857492,549,95.30101760454093,1.305
515,12.627091486309912,1020,1020.0797207765472,551,95.8858481080654,1.306
514,12.624446894198964,1020,1020.0805258548781,551,96.40868885933658,1.307
515,12.601943529216973,1020,1020.0813274236949,551,96.86809238349231,1.308
515,12.576408442626734,1020,1020.0821254859703,551,97.26643554181814,1.309
510,12.583065722349541,1020,1020.082920044698,551,97.60977318874892,1.31
514,12.324524677479367,1020,1020.083711102891,550,97.90729207765776,1.311
511,12.018346537450252,1020,1020.0844986635826,548,98.17043027834531,1.312
510,12.013772169249085,1020,1020.085282729826,547,98.41176999569636,1.313
514,11.909991866711687,1020,1020.0860633046942,545,98.64384254104635,1.314
518,11.53510295078002,1020,1020.0868403912802,545,98.87799755448559,1.315
518,11.02730445894961,1020,1020.0876139926966,545,99.12348001607174,1.316
518,10.685303558218058,1020,1020.0883841120747,546,99.38682773311908,1.317
530,10.528098671037533,1020,1020.089150752566,547,99.67165329651735,1.318
531,11.07210818494599,1020,1020.0899139173414,550,99.9788160544187,1.319
536,12.021158604022018,1020,1020.0906736095915,552,100.30693117972463,1.32
520,12.001208121537701,1020,1020.0914298325254,553,100.65311427133543,1.321
508,10.982313977884822,1020,1020.0921825893719,554,101.01382975946804,1.322
495,10.675609396830538,1020,1020.092931883379,554,101.38570454543111,1.323
476,11.262595400984909,1020,1020.0936777178139,554,101.76618372240549,1.324
471,12.469546823443341,1020,1020.0944200959624,555,102.15393690982066,1.325
488,13.650607368606114,1020,1020.0951590211292,555,102.54896441346638,1.326
504,14.485828418323674,1020,1020.0958944966377,554,102.95239668100821,1.327
512,14.723459295145329,1020,1020.0966265258302,552,103.36602523850617,1.328
521,14.709342595139587,1020,1020.0973551120674,551,103.79164512948486,1.329
520,15.156561927911225,1020,1020.0980802587287,551,104.230321762039,1.33
516,15.626215109963077,1020,1020.0988019692122,550,104.68171162667677,1.331
514,16.0432950874973,1020,1020.0995202469348,550,105.1435622758761,1.332
512,16.285621814752375,1020,1020.1002350953327,551,105.61149304621212,1.333
509,16.291143051204656,1020,1020.1009465178604,552,106.07911826886186,1.334
512,16.32750649360637,1020,1020.1016545179914,554,106.53852450906555,1.335
515,16.410507924898912,1020,1020.1023590992168,556,106.981059504327,1.336
517,16.68119865495223,1020,1020.1030602650459,558,107.39834111536358,1.337
510,16.897293224996183,1020,1020.1037580190065,559,107.78335782878558,1.338
512,17.02334705106543,1020,1020.1044523646439,560,108.1315142001133,1.339
519,17.009803978025953,1020,1020.105143305521,560,108.44147756888032,1.34
515,17.446740548723525,1020,1020.105830845219,561,108.71570475996307,1.341
520,17.878174923491134,1020,1020.1065149873372,561,108.96056475076894,1.342
544,17.821900687204018,1020,1020.1071957354926,560,109.18602031350635,1.343
571,17.968875248746865,1020,1020.1078730933202,559,109.40488408882034,1.344
550,18.470003680496156,1020,1020.1085470644728,557,109.63171793412624,1.345
518,18.729937945878447,1020,1020.1092176526206,556,109.88149256032423,1.346
494,19.101584088411,1020,1020.1098848614522,555,110.1681599888418,1.347
467,19.462759477781844,1020,1020.1105486946742,554,110.5033079242225,1.348
447,19.392079234627705,1020,1020.111209156011,553,110.89505964277166,1.349
437,19.883027594938138,1020,1020.1118662492038,554,111.34735555651207,1.35
460,20.02456743052485,1020,1020.1125199780112,556,111.85970544987819,1.351
481,20.119964944271057,1020,1020.1131703462096,559,112.42743809737892,1.352
519,20.387904848969104,1020,1020.1138173575927,561,113.0424061731794,1.353
536,20.506080205247404,1020,1020.1144610159716,563,113.69404135437743,1.354
537,20.753092606112666,1020,1020.115101325175,564,114.37060909391626,1.355
535,21.206753193246524,1020,1020.1157382890491,566,115.06049116835912,1.356
527,21.506068869993676,1020,1020.1163719114569,568,115.75332683198666,1.357
508,21.61657123638358,1020,1020.1170021962789,568,116.44086686572936,1.358
506,22.011354762651685,1020,1020.1176291474121,568,117.11743560162667,1.359
519,22.093280983994216,1020,1020.1182527687697,568,117.77995078555493,1.36
527,22.262505616016032,1020,1020.1188730642816,566,118.42751439713872,1.361
526,22.288271535878593,1020,1020.1194900378941,564,119.06065095319704,1.362
519,22.456339674931147,1020,1020.1201036935704,563,119.68032373416844,1.363
515,22.70121413719733,1020,1020.1207140352903,563,120.28689437416332,1.364
483,23.066778089032113,1020,1020.1213210670504,563,120.87920029570202,1.365
488,23.806196912821903,1020,1020.1219247928635,563,121.45390594251393,1.366
508,24.570451175460857,1020,1020.1225252167593,564,122.00524215114481,1.367
538,25.129920345426243,1020,1020.1231223427841,566,122.52519075171669,1.368
557,24.466109172746265,1020,1020.1237161750015,568,123.00410611239701,1.369
549,24.081450719498925,1020,1020.124306717492,571,123.43169963334532,1.37
540,24.689093906633257,1020,1020.124893974352,573,123.79825626309446,1.371
536,26.674561505522565,1020,1020.1254779496942,574,124.09591335377498,1.372
500,27.87408419203069,1020,1020.1260586476476,575,124.31981854803959,1.373
451,27.67096915995579,1020,1020.1266360723573,575,124.46899697358964,1.374
465,26.419529480380533,1020,1020.1272102279847,575,124.5467955687437,1.375
483,25.780931126712932,1020,1020.1277811187076,574,124.5608272447096,1.376
491,25.36546174912332,1020,1020.1283487487196,573,124.52240230970679,1.377
518,25.217549835938073,1020,1020.1289131222304,570,124.44550187966846,1.378
533,25.41521330589453,1020,1020.1294742434651,568,124.34541049869571,1.379
543,25.282805189211732,1020,1020.1300321166644,566,124.23717478748276,1.38
530,25.18339008019075,1020,1020.1305867460845,564,124.13408339368384,1.381
502,24.700465247490378,1020,1020.1311381359977,564,124.04636470799498,1.382
490,24.417877946772354,1020,1020.1316862906918,564,123.98027108132841,1.383
505,24.405683361933807,1020,1020.1322312144706,565,123.93766522950186,1.384
519,24.405219049364455,1020,1020.1327729116529,568,123.91615428761177,1.385
516,24.493792824848818,1020,1020.133311386573,569,123.90974085287952,1.386
524,24.37477502963925,1020,1020.1338466435805,571,123.90989084636878,1.387
523,24.253745748195755,1020,1020.1343786870393,571,123.9068662842906,1.388
529,24.161109684155857,1020,1020.1349075213293,572,123.8911437532033,1.389
555,24.33456493412869,1020,1020.1354331508455,573,123.8547370915981,1.39
552,23.78280614004622,1020,1020.1359555799982,573,123.79226173026142,1.391
547,23.445739630656504,1020,1020.1364748132115,573,123.70161386347066,1.392
507,23.616131161599633,1020,1020.1369908549251,572,123.58418671557344,1.393
468,23.44955580211827,1020,1020.1375037095928,570,123.44460514051207,1.394
438,22.579531686395327,1020,1020.138013381683,568,123.29002317040487,1.395
402,22.25208538945681,1020,1020.138519875679,566,123.1290890366962,1.396
432,22.061142349878935,1020,1020.1390231960792,564,122.97072963768406,1.397
478,21.795606346708414,1020,1020.1395233473964,562,122.8229335646493,1.398
511,21.742356063275206,1020,1020.1400203341584,561,122.69171373407232,1.399
550,20.5322465226671,1020,1020.1405141609068,561,122.58040589866542,1.4
541,19.86150162344224,1020,1020.1410048321975,563,122.48940964948378,1.401
531,19.47469256334337,1020,1020.1414923526002,565,122.41640995141395,1.402
527,19.18602928318282,1020,1020.1419767266991,567,122.35704065254453,1.403
531,19.24356746923712,1020,1020.1424579590928,568,122.305880878743,1.404
531,18.876641533720274,1020,1020.1429360543938,570,122.25762365370731,1.405
511,18.29807282071296,1020,1020.1434110172294,571,122.2082309905254,1.406
511,17.96175987234589,1020,1020.1438828522413,571,122.15589268709773,1.407
515,17.977198320990304,1020,1020.1443515640857,571,122.10163504374935,1.408
518,17.84923904085529,1020,1020.1448171574324,570,122.04947641797955,1.409
523,18.03410176385804,1020,1020.1452796369648,568,122.00609233476413,1.41
523,17.882280387897026,1020,1020.1457390073796,566,121.98002505090643,1.411
519,18.477748286072732,1020,1020.1461952733866,564,121.98054112769347,1.412
510,19.26517022954286,1020,1020.1466484397092,562,122.0162957629242,1.413
504,19.85027666491939,1020,1020.1470985110836,560,122.09399595490059,1.414
513,19.62476556020381,1020,1020.1475454922602,559,122.21726061353843,1.415
523,19.01645026217135,1020,1020.1479893880023,560,122.38585254210533,1.416
526,19.068318411746326,1020,1020.1484302030872,561,122.59540647763734,1.417
529,19.678861337385808,1020,1020.1488679423052,564,122.83770544711659,1.418
515,20.349071107899707,1020,1020.1493026104605,566,123.10147592937663,1.419
494,19.528168323349465,1020,1020.1497342123704,568,123.37359489172448,1.42
496,18.25669885031392,1020,1020.1501627528652,570,123.64054174018698,1.421
503,16.159991888985086,1020,1020.1505882367884,572,123.88989417786115,1.422
503,15.622263284098842,1020,1020.1510106689958,572,124.11166215936016,1.423
512,16.142309447533975,1020,1020.151430054356,572,124.29927764675651,1.424
527,16.487146823612104,1020,1020.1518463977502,572,124.45010564072756,1.425
522,15.945451051803484,1020,1020.1522597040723,571,124.56540693489876,1.426
505,15.657387784109524,1020,1020.1526699782282,569,124.6497563890933,1.427
503,16.95344367898164,1020,1020.1530772251365,567,124.70999356225043,1.428
514,17.931375206853918,1020,1020.1534814497284,565,124.75384712276313,1.429
515,17.541445585177613,1020,1020.1538826569474,563,124.78842232211124,1.43
508,17.52832265020386,1020,1020.1542808517496,561,124.81876460642127,1.431
502,18.102923212400835,1020,1020.1546760391028,560,124.8467074828717,1.432
496,18.433424198022518,1020,1020.1550682239871,561,124.87017781096145,1.433
496,18.536296219259086,1020,1020.1554574113956,563,124.88306924342012,1.434
508,18.776370098394395,1020,1020.1558436063336,566,124.8757121231414,1.435
545,18.780482491468508,1020,1020.156226813819,568,124.83587906720305,1.436
565,18.617525743795248,1020,1020.1566070388816,569,124.75018629186522,1.437
550,18.61695368718603,1020,1020.1569842865633,570,124.60569562909738,1.438
521,18.557584969890456,1020,1020.1573585619176,571,124.39149804567384,1.439
491,18.409649110091436,1020,1020.1577298700099,571,124.100065425688,1.44
467,18.433631669845738,1020,1020.1580982159176,571,123.72818843090295,1.441
436,18.768754641224874,1020,1020.1584636047296,571,123.27736903076458,1.442
480,19.178354059973753,1020,1020.158826041547,569,122.7536020235208,1.443
503,19.349024168720046,1020,1020.159185531482,566,122.16655561122323,1.444
509,19.455341531715767,1020,1020.159542079659,563,121.52824041921339,1.445
499,19.13133234787006,1020,1020.1598956912136,559,120.85132998487451,1.446
566,18.96732240697269,1020,1020.160246371293,556,120.14735189620463,1.447
560,19.456330933039084,1020,1020.160594125056,554,119.42499616289666,1.448
535,19.930255199940547,1020,1020.1609389576726,553,118.6887789587725,1.449
516,20.360488612707098,1020,1020.1612808743241,553,117.9382549968679,1.45
498,20.31564385169906,1020,1020.1616198802037,554,117.16789689217337,1.451
420,20.375753864113424,1020,1020.1619559805151,556,116.3676668623664,1.452
448,20.410216577422865,1020,1020.1622891804734,557,115.52420975447802,1.453
508,20.322572882986798,1020,1020.162619485305,558,114.62251143519472,1.454
531,20.362929257149958,1020,1020.1629469002476,559,113.64780512231239,1.455
539,20.394002714420605,1020,1020.1632714305504,560,112.58747740761603,1.456
528,20.561425263988365,1020,1020.1635930814731,559,111.43272761666528,1.457
520,20.566925683509826,1020,1020.1639118582865,557,110.1797675126668,1.458
527,20.309424783079262,1020,1020.1642277662721,555,108.83040916859048,1.459
524,20.05576446201092,1020,1020.1645408107223,553,107.3919693373987,1.46
511,20.252411671182365,1020,1020.1648509969399,549,105.87650802363072,1.461
508,19.723109311335435,1020,1020.1651583302381,544,104.29950637288047,1.462
509,18.660362617527042,1020,1020.1654628159408,540,102.67816501378842,1.463
516,17.907668551389055,1020,1020.165764459382,535,101.029559029286,1.464
512,17.76001050339239,1020,1020.1660632659054,532,99.36890977698478,1.465
540,17.58518826736575,1020,1020.1663592408659,531,97.7082195385088,1.466
544,16.737408307030165,1020,1020.1666523896283,530,96.05546168092167,1.467
537,15.450148037114008,1020,1020.166942717568,531,94.41443398534578,1.468
519,14.776218388913769,1020,1020.16723023007,532,92.78528026715759,1.469
509,14.90717272361694,1020,1020.1675149325293,533,91.16558288827758,1.47
504,14.913949210156947,1020,1020.1677968303503,534,89.55184281663695,1.471
477,15.428487415286627,1020,1020.1680759289471,534,87.94110723304627,1.472
480,15.979272690963702,1020,1020.168352233744,533,86.33248461813763,1.473
489,16.500790037248205,1020,1020.1686257501757,532,84.72830505471568,1.474
502,17.088779686396997,1020,1020.1688964836868,530,83.13473489793964,1.475
499,16.982255788385142,1020,1020.1691644397313,527,81.561731804976,1.476
505,17.43181956066509,1020,1020.1694296237727,524,80.02231832445432,1.477
517,17.89123071226992,1020,1020.1696920412835,519,78.53124916365131,1.478
518,18.69043463689479,1020,1020.1699516977462,515,77.10323768583602,1.479
517,19.173511117733106,1020,1020.1702085986528,510,75.75097944041741,1.48
523,18.8443091311816,1020,1020.1704627495044,506,74.48325329828903,1.481
523,18.378487789214766,1020,1020.1707141558107,504,73.30338497155266,1.482
511,18.049282061295756,1020,1020.1709628230905,504,72.2083188173835,1.483
511,18.378816763016367,1020,1020.1712087568716,505,71.18846441499494,1.484
500,18.142597576883805,1020,1020.1714519626906,507,70.22837565686005,1.485
504,18.458132400833442,1020,1020.1716924460924,509,69.30820032441677,1.486
513,18.93052474238143,1020,1020.1719302126306,511,68.40572780596004,1.487
508,19.25615836391462,1020,1020.172165267868,512,67.49877897685347,1.488
510,19.298320124712486,1020,1020.1723976173753,513,66.56763617360501,1.489
506,19.78573096932081,1020,1020.1726272667311,513,65.59720664789205,1.49
508,20.154461685536788,1020,1020.1728542215233,512,64.5786480592451,1.491
515,19.769119052531437,1020,1020.1730784873489,510,63.51025352148911,1.492
513,19.23745663646217,1020,1020.1733000698136,507,62.397487649093875,1.493
518,18.9735841916855,1020,1020.1735189745319,504,61.252172733216064,1.494
519,19.013325477659166,1020,1020.1737352071265,499,60.090932667968296,1.495
539,19.493989447634576,1020,1020.1739487732281,495,58.933098268229884,1.496
589,20.09946177164137,1020,1020.174159678476,491,57.79834883849663,1.497
594,20.036703531146056,1020,1020.1743679285179,487,56.70440086770451,1.498
560,19.632182137263584,1020,1020.1745735290098,486,55.66504859394641,1.499
517,19.21333802815297,1020,1020.1747764856157,486,54.688811358570945,1.5
472,19.36024332442745,1020,1020.1749768040074,487,53.77835452863994,1.501
401,19.782926552389167,1020,1020.175174489865,490,52.930737071695006,1.502
406,20.004896083090692,1020,1020.1753695488767,492,52.13841803447814,1.503
484,20.04016345521003,1020,1020.1755619867392,494,51.39084619059039,1.504
509,20.1047103320488,1020,1020.175751809157,495,50.676378910430216,1.505
514,20.06098813574525,1020,1020.175939021842,496,49.984238256458035,1.506
511,20.113353251040284,1020,1020.176123630515,496,49.30621690954234,1.507
483,20.038873388660082,1020,1020.1763056409035,495,48.63788981644343,1.508
518,20.03406627446759,1020,1020.1764850587432,493,47.97916171627248,1.509
534,20.045285602012886,1020,1020.1766618897776,491,47.334076092401546,1.51
538,20.007074611662716,1020,1020.1768361397575,487,46.70991590140004,1.511
530,20.022727711122275,1020,1020.1770078144413,484,46.11572777588248,1.512
510,20.080732385183822,1020,1020.1771769195948,480,45.56048649156683,1.513
482,20.049515290040315,1020,1020.1773434609904,477,45.05117382176634,1.514
492,20.10538337819314,1020,1020.1775074444072,474,44.59106651158684,1.515
502,20.137689923688093,1020,1020.1776688756313,473,44.17850689476068,1.516
518,20.251853615902856,1020,1020.1778277604562,475,43.80636645305728,1.517
521,20.322982475765755,1020,1020.1779841046823,478,43.46231340317265,1.518
520,20.338955579252715,1020,1020.1781379141163,481,43.12987407966159,1.519
538,20.204575949110733,1020,1020.1782891945714,484,42.790155499268714,1.52
551,20.1066319385407,1020,1020.1784379518673,485,42.42399570979972,1.521
543,19.803982600225755,1020,1020.1785841918296,487,42.01424601278922,1.522
525,18.684273268730283,1020,1020.1787279202905,487,41.54787135881141,1.523
511,17.245666798044486,1020,1020.1788691430885,488,41.01757972835319,1.524
492,16.277412375679727,1020,1020.1790078660686,487,40.422751131993344,1.525
479,16.15548156574169,1020,1020.1791440950822,486,39.76952394693308,1.526
492,15.483413837554755,1020,1020.1792778359866,483,39.070002553096714,1.527
506,13.640856447831835,1020,1020.1794090946462,478,38.34066646376066,1.528
504,11.615818371726439,1020,1020.1795378769318,472,37.60017537704005,1.529
515,11.182917668848944,1020,1020.1796641887206,468,36.8668608828928,1.53
526,11.386821420335945,1020,1020.1797880358953,465,36.15625563065001,1.531
519,11.48026327296799,1020,1020.179909424345,463,35.47901951143936,1.532
514,11.780231964311458,1020,1020.1800283599649,463,34.83957467497419,1.533
510,11.624874216695249,1020,1020.1801448486561,464,34.2356638253561,1.534
504,11.633385501322474,1020,1020.1802588963259,467,33.65891467273823,1.535
503,11.677017286688711,1020,1020.1803705088877,471,33.096347336969245,1.536
510,13.1361396342687,1020,1020.1804796922611,474,32.532622315558235,1.537
516,14.508900387116112,1020,1020.1805864523712,476,31.95271532420378,1.538
519,15.207578293214118,1020,1020.1806907951486,479,31.344638763878105,1.539
521,14.846371728029682,1020,1020.18079272653,480,30.701816724893032,1.54
524,16.47813021244225,1020,1020.1808922524579,479,30.02476174468985,1.541
521,20.349498868935,1020,1020.1809893788804,477,29.321791187183827,1.542
516,22.500163273939442,1020,1020.1810841117509,474,28.6086482840399,1.543
515,23.65505355378732,1020,1020.1811764570276,470,27.907041492299093,1.544
516,25.90245606443835,1020,1020.1812664206747,464,27.242266189667774,1.545
502,27.521193938557982,1020,1020.1813540086615,459,26.640204853553794,1.546
492,28.079498127447536,1020,1020.1814392269631,455,26.124097413313738,1.547
504,27.696811815565912,1020,1020.1815220815594,451,25.711517070405346,1.548
513,29.506258742699636,1020,1020.1816025784358,451,25.41196915463549,1.549
515,32.6589684705143,1020,1020.1816807235834,452,25.225451313555794,1.55
519,33.547839458812305,1020,1020.1817565229978,455,25.142182518530333,1.551
532,33.46054061226841,1020,1020.1818299826793,461,25.14354519170358,1.552
518,33.28341748583963,1020,1020.1819011086334,464,25.204114856431566,1.553
512,34.59292414229252,1020,1020.1819699068703,468,25.29450247816154,1.554
502,35.961058383009686,1020,1020.1820363834044,471,25.38462903260465,1.555
503,37.45144998470638,1020,1020.1821005442542,473,25.44700294529752,1.556
500,38.44747642557928,1020,1020.1821623954437,474,25.45958099428859,1.557
495,38.89321332468804,1020,1020.1822219430013,473,25.40785621754703,1.558
511,39.04381566488262,1020,1020.1822791929598,473,25.285921868012256,1.559
539,39.57344363753821,1020,1020.1823341513563,470,25.096394945882572,1.56
616,39.984118107078025,1020,1020.1823868242327,466,24.8492309896504,1.561
600,40.25786142509044,1020,1020.1824372176352,460,24.559607777384404,1.562
555,42.867639546571404,1020,1020.1824853376138,456,24.245182461615787,1.563
500,45.774378634285206,1020,1020.1825311902226,452,23.923116090847113,1.564
415,46.16288659855078,1020,1020.1825747815201,449,23.607295160918415,1.565
307,46.50785135924653,1020,1020.1826161175695,448,23.30615325617001,1.566
402,48.533713338761224,1020,1020.1826552044373,450,23.021408927763723,1.567
576,52.806861673744386,1020,1020.1826920481941,453,22.74790007520287,1.568
635,55.88758874896894,1020,1020.1827266549141,458,22.474529528941034,1.569
615,57.267725343997405,1020,1020.1827590306754,463,22.18616690551915,1.57
580,57.58642232011756,1020,1020.1827891815602,466,21.866206096444547,1.571
519,58.02487808725138,1020,1020.1828171136546,468,21.49938003871133,1.572
406,58.221221309880455,1020,1020.1828428330479,470,21.074399009368854,1.573
348,58.31499685388403,1020,1020.1828663458334,470,20.58600745519814,1.574
444,59.99826087440476,1020,1020.1828876581078,469,20.03613902561472,1.575
478,61.408803295295456,1020,1020.1829067759707,466,19.433976599812322,1.576
516,61.43941692976187,1020,1020.1829237055256,463,18.79487809067641,1.577
580,61.85815210174694,1020,1020.1829384528794,457,18.138292032568355,1.578
579,63.11964957754793,1020,1020.1829510241421,450,17.484939936608978,1.579
585,64.32093346383242,1020,1020.1829614254265,444,16.8536647060898,1.58
563,65.11549765525626,1020,1020.1829696628487,440,16.25841573304073,1.581
537,65.68947623138479,1020,1020.1829757425274,439,15.70584473674457,1.582
490,65.93229677691606,1020,1020.1829796705846,439,15.193914990378381,1.583
479,65.88178563946181,1020,1020.1829814531451,441,14.711788340559426,1.584
467,66.22713896467076,1020,1020.1829810963376,446,14.241070810072001,1.585
531,66.17905641509819,1020,1020.1829786062931,451,13.758297040440057,1.586
632,64.51452590397945,1020,1020.1829739891455,456,13.238346259196572,1.587
655,62.71724270165566,1020,1020.1829672510303,460,12.658335858229039,1.588
522,62.135416991126824,1020,1020.1829583980862,463,12.001455357659552,1.589
481,62.35201713160995,1020,1020.1829474364549,463,11.26019570685775,1.59
388,60.72454460019342,1020,1020.1829343722816,463,10.438496699210534,1.591
285,56.86713025406454,1020,1020.182919211713,461,9.552468238141754,1.592
344,54.66216557015324,1020,1020.1829019608991,456,8.62952131167532,1.593
437,53.52770192418872,1020,1020.1828826259922,450,7.70594981478046,1.594
519,51.403359682101,1020,1020.1828612131472,443,6.823210587845101,1.595
543,49.43005661461896,1020,1020.182837728522,436,6.023330124614173,1.596
533,48.170006075323755,1020,1020.1828121782765,430,5.343996441750882,1.597
