EMG_raw,EMG_processed,EDA_raw,EDA_processed,ECG_raw,ECG_processed,time_sec
528,8.636905178717138,1020,1019.9950210830501,447,-25.723506686199844,0.0
527,8.943654496065147,1020,1019.995012887135,449,-23.722794788403412,0.001
525,9.118931693146902,1020,1019.9950046793423,453,-21.768256374139263,0.002
524,9.330516535232768,1020,1019.9949964596952,456,-19.912933351560458,0.003
519,9.447717362734556,1020,1019.9949882282175,459,-18.20330633930031,0.004
514,9.540706480770515,1020,1019.9949799849327,461,-16.676399663046876,0.005
514,9.555396538149584,1020,1019.994971729864,463,-15.357593910877107,0.006
512,9.630608321656212,1020,1019.9949634630351,465,-14.259310341208458,0.007
511,9.857155548644517,1020,1019.9949551844696,466,-13.380669118979966,0.008
507,10.077693655511462,1020,1019.9949468941908,465,-12.708149190831174,0.009
508,10.391208297707626,1020,1019.9949385922217,464,-12.217195330746067,0.01
504,10.920469155954475,1020,1019.9949302785861,463,-11.874633146576734,0.011
504,11.51828930388635,1020,1019.9949219533077,460,-11.641674296374886,0.012
509,11.858571691515747,1020,1019.9949136164099,457,-11.477231855930281,0.013
514,11.860912360539054,1020,1019.9949052679161,455,-11.341228919023171,0.014
558,11.98895903726103,1020,1019.9948969078495,454,-11.197579970014107,0.015
568,12.25924556302184,1020,1019.9948885362336,455,-11.016559730078873,0.016
548,12.736356978745377,1020,1019.9948801530926,457,-10.776347546251426,0.017
518,13.054747537419557,1020,1019.994871758451,460,-10.463638117149651,0.018
487,13.2221903325338,1020,1019.9948633523335,464,-10.073325639735796,0.019
455,13.403825233933603,1020,1019.9948549347645,467,-9.60737970147446,0.02
424,13.502374499358648,1020,1019.994846505769,468,-9.07312039614468,0.021
471,13.62148441620533,1020,1019.9948380653722,471,-8.48115561342927,0.022
490,13.912265501907497,1020,1019.9948296135984,473,-7.843261625040645,0.023
509,14.134564381176682,1020,1019.9948211504728,475,-7.170472253474372,0.024
521,14.23647569307325,1020,1019.9948126760204,475,-6.471597652114958,0.025
518,14.249254219040598,1020,1019.9948041902661,475,-5.752325862613518,0.026
517,14.383975629879043,1020,1019.994795693235,473,-5.014974596827607,0.027
515,14.592363791524818,1020,1019.9947871849521,472,-4.258866641120652,0.028
512,14.71065638877706,1020,1019.9947786654433,470,-3.4812128153017396,0.029
510,14.735436562703885,1020,1019.994770134735,468,-2.6783147518739105,0.03
512,14.646648412064946,1020,1019.9947615928535,467,-1.8468564966789243,0.031
521,14.59969349635291,1020,1019.9947530398262,467,-0.9850458019129037,0.032
520,14.586815331764322,1020,1019.9947444756798,469,-0.09339536493794791,0.033
526,14.578598943466805,1020,1019.9947359004408,472,0.825001989452697,0.034
536,14.457898402825034,1020,1019.9947273141364,475,1.7647619153974454,0.035
541,14.481847431557592,1020,1019.994718716794,479,2.719021240608657,0.036
527,14.37790547090094,1020,1019.9947101084402,483,3.680645468986809,0.037
512,14.22405598058131,1020,1019.9947014891021,486,4.643634630111113,0.038
504,14.168362932957887,1020,1019.9946928588068,488,5.6044961969813,0.039
499,14.234040968806456,1020,1019.9946842175822,489,6.563355913372011,0.04
487,13.44341117047272,1020,1019.9946755654554,491,7.524614825190048,0.041
497,12.314931902192324,1020,1019.9946669024538,490,8.497026275477491,0.042
503,11.619377597528441,1020,1019.9946582286051,489,9.493149711814244,0.043
504,11.5919782429957,1020,1019.9946495439375,487,10.528227655589523,0.044
507,11.386990125329362,1020,1019.9946408484797,487,11.618615955447575,0.045
519,10.438091835495362,1020,1019.9946321422607,487,12.779962854704506,0.046
527,8.920472093085184,1020,1019.9946234253097,486,14.025369854917784,0.047
524,8.231791327123016,1020,1019.9946146976557,486,15.363773561666406,0.048
518,8.00404639505796,1020,1019.9946059593279,487,16.798764257719718,0.049
512,8.131691500080915,1020,1019.9945972103559,489,18.328006614406302,0.05
506,7.940458633251514,1020,1019.9945884507696,494,19.943354113515053,0.051
502,7.816742395492486,1020,1019.9945796805986,497,21.631658460946117,0.052
507,7.679863244141523,1020,1019.9945708998729,502,23.376180970562285,0.053
508,7.577615501898715,1020,1019.994562108623,506,25.158429836065256,0.054
511,7.648351992479929,1020,1019.9945533068793,510,26.96018857537002,0.055
515,7.776669108554412,1020,1019.9945444946728,513,28.76547472091129,0.056
519,7.921722692730668,1020,1019.9945356720349,515,30.562176667795377,0.057
517,7.707068126300948,1020,1019.9945268389969,517,32.34315839100156,0.058
510,7.731110946273209,1020,1019.9945179955902,518,34.106690177068366,0.059
505,7.456699736432261,1020,1019.9945091418466,518,35.85614932148718,0.06
508,7.157188339107033,1020,1019.9945002777985,518,37.59902760172819,0.061
512,6.828538317536322,1020,1019.9944914034776,517,39.34537186870678,0.062
513,6.632333432564848,1020,1019.9944825189162,516,41.10585997853835,0.063
505,6.78559094646492,1020,1019.9944736241467,515,42.88976664180084,0.064
504,6.698022140387078,1020,1019.9944647192009,516,44.703094191449,0.065
510,6.728781332059018,1020,1019.994455804111,518,46.547126360109914,0.066
517,6.454466600329875,1020,1019.9944468789093,520,48.417608767428334,0.067
519,6.317722825442764,1020,1019.9944379436287,525,50.304674662699206,0.068
521,6.412523136606732,1020,1019.9944289983017,530,52.193531126303846,0.069
519,6.6771802652696906,1020,1019.9944200429621,534,54.065815137353276,0.07
517,7.077611306966303,1020,1019.9944110776436,538,55.90143694528285,0.071
516,7.172652326267685,1020,1019.9944021023797,543,57.6806637359417,0.072
507,6.887977008017583,1020,1019.9943931172046,546,59.386167583916205,0.073
505,6.741931848888481,1020,1019.9943841221524,547,61.004770051308974,0.074
505,6.871780785311111,1020,1019.9943751172576,549,62.52865926808441,0.075
509,7.244747522862294,1020,1019.9943661025553,550,63.9559276548757,0.076
507,7.3773153077936096,1020,1019.99435707808,549,65.29036932427653,0.077
512,7.325908067701502,1020,1019.9943480438668,548,66.54057380260062,0.078
519,7.45884232617452,1020,1019.9943389999506,547,67.71844594472354,0.079
518,7.724891809397093,1020,1019.9943299463665,544,68.83735989815136,0.08
522,7.938770015762001,1020,1019.99432088315,543,69.91020682902408,0.081
511,7.9730220714045075,1020,1019.9943118103364,543,70.9476126090698,0.082
499,7.898497982603456,1020,1019.9943027279613,545,71.9565773532049,0.083
508,7.8697047808198715,1020,1019.9942936360602,548,72.93972463554213,0.084
523,7.890188772369414,1020,1019.994284534669,551,73.89525407514458,0.085
523,7.936119496735043,1020,1019.9942754238235,555,74.81758358793886,0.086
519,8.085866916945633,1020,1019.9942663035603,558,75.69856562715026,0.087
517,8.363895721181613,1020,1019.994257173916,562,76.52908062385505,0.088
510,8.632077116773681,1020,1019.9942480349272,564,77.30076070662902,0.089
494,8.667246585423003,1020,1019.9942388866306,566,78.0075826322872,0.09
502,8.578021514157898,1020,1019.994229729063,567,78.64709112799885,0.091
500,8.796836437656554,1020,1019.9942205622609,567,79.22106856645073,0.092
499,8.927537747107225,1020,1019.9942113862606,567,79.73554637612025,0.093
487,9.108393398726601,1020,1019.994202201099,564,80.2001478263743,0.094
487,9.1257680999176,1020,1019.9941930068129,561,80.62684952526128,0.095
499,9.01597117620761,1020,1019.9941838034387,559,81.02833731619499,0.096
512,8.903306735777624,1020,1019.9941745910127,557,81.4161971355296,0.097
514,8.830615163426685,1020,1019.9941653695713,556,81.79921039211605,0.098
523,8.868058564942078,1020,1019.9941561391514,557,82.18201042666043,0.099
530,9.00619863248146,1020,1019.9941468997903,558,82.56430377830452,0.1
525,9.182331445619559,1020,1019.9941376515256,561,82.94077645812571,0.101
519,9.29224548198947,1020,1019.9941283943953,564,83.30170492461932,0.102
524,9.24169592120083,1020,1019.9941191284373,567,83.63418991038236,0.103
529,9.298209661366279,1020,1019.9941098536896,569,83.92384414106054,0.104
524,9.230147952880206,1020,1019.9941005701897,571,84.1567044953897,0.105
516,9.129160636813902,1020,1019.994091277976,572,84.32111179406063,0.106
509,8.95705006176038,1020,1019.9940819770871,574,84.40930750079896,0.107
508,9.03406291598334,1020,1019.9940726675621,575,84.41853237596531,0.108
507,9.006262715683336,1020,1019.9940633494401,574,84.35147274818729,0.109
502,9.169907897921851,1020,1019.9940540227602,572,84.21598106106308,0.11
499,9.058553697198567,1020,1019.9940446875615,569,84.02409254129208,0.111
497,8.889415139665356,1020,1019.9940353438836,566,83.79045854604209,0.112
498,8.842232204767374,1020,1019.9940259917661,562,83.53040454456709,0.113
502,8.767029629656838,1020,1019.9940166312489,559,83.25788160870083,0.114
516,8.759778321898807,1020,1019.9940072623721,558,82.98360302903758,0.115
523,8.535832797866984,1020,1019.9939978851756,558,82.71363615080855,0.116
524,8.404340209447852,1020,1019.9939884996996,560,82.44865510648967,0.117
526,8.296289323756051,1020,1019.9939791059845,562,82.18396288039872,0.118
523,8.109448064666138,1020,1019.9939697040712,564,81.91027812185183,0.119
508,7.7333020165582305,1020,1019.9939602940007,567,81.61517250310786,0.12
513,7.352311097043899,1020,1019.9939508758142,569,81.28495446843799,0.121
510,7.205756207156742,1020,1019.9939414495537,571,80.9067359345979,0.122
507,7.25793866357358,1020,1019.9939320152606,572,80.47039587967639,0.123
496,7.208203432188424,1020,1019.9939225729757,572,79.97017056675519,0.124
498,7.000532571688216,1020,1019.9939131227401,571,79.40565193762706,0.125
502,6.6668389456434385,1020,1019.9939036645945,569,78.78205674925069,0.126
511,6.6390811445708575,1020,1019.99389419858,566,78.10972889523156,0.127
507,6.671731001069786,1020,1019.9938847247375,562,77.40294307538288,0.128
507,6.435973160597186,1020,1019.9938752431075,558,76.67817530258601,0.129
509,6.11201383130145,1020,1019.9938657537308,556,75.95208057871903,0.13
509,5.933515272616235,1020,1019.9938562566489,553,75.23945868694335,0.131
516,5.850511858058158,1020,1019.9938467519031,552,74.55148904863714,0.132
522,5.901509906953031,1020,1019.9938372395349,552,73.8944757170636,0.133
522,5.96511137468815,1020,1019.9938277195855,553,73.26927068526133,0.134
517,6.028367162523303,1020,1019.9938181920969,555,72.67144874179614,0.135
517,5.933201351772119,1020,1019.9938086571104,556,72.0922038839793,0.136
516,5.749596225047907,1020,1019.9937991146675,558,71.51984052412342,0.137
516,5.615527628929807,1020,1019.9937895648094,560,70.94165502400956,0.138
513,5.466795251367773,1020,1019.993780007578,562,70.34595286399473,0.139
508,5.41312822205413,1020,1019.9937704430153,562,69.72392864252473,0.14
508,5.3646920188288,1020,1019.9937608711629,563,69.07115224375036,0.141
508,5.438974527709171,1020,1019.9937512920623,561,68.38845405925977,0.142
508,5.670843139379234,1020,1019.9937417057544,560,67.6820799804771,0.143
508,5.746759447895806,1020,1019.9937321122801,556,66.96308370009446,0.144
506,5.676601950308412,1020,1019.9937225116809,553,66.24602750598609,0.145
508,5.811014167848013,1020,1019.993712903998,549,65.5471594119224,0.146
509,6.097165818787726,1020,1019.993703289273,546,64.88231017951934,0.147
510,6.297410598375066,1020,1019.9936936675471,543,64.26479672961693,0.148
513,6.26638860553264,1020,1019.9936840388617,542,63.70362132636904,0.149
514,6.125023328639345,1020,1019.9936744032583,542,63.2022172880953,0.15
524,6.387500268435288,1020,1019.9936647607777,543,62.757916524724436,0.151
521,7.286320845372967,1020,1019.9936551114614,546,62.362212468162625,0.152
510,8.072638266679572,1020,1019.9936454553512,549,62.00177911201928,0.153
513,8.37249471723902,1020,1019.9936357924888,551,61.660100384340645,0.154
515,8.422691696586364,1020,1019.9936261229167,553,61.31948064972978,0.155
512,8.417997651384663,1020,1019.993616446677,555,60.96315905832963,0.156
506,8.4468511864806,1020,1019.9936067638122,555,60.57724293615355,0.157
505,8.566725407212243,1020,1019.9935970743649,555,60.15220699674126,0.158
503,8.566171552090587,1020,1019.9935873783778,553,59.68376993929153,0.159
507,8.648298694573885,1020,1019.9935776758938,551,59.17304875191151,0.16
507,8.861536820460444,1020,1019.9935679669555,548,58.62599157868916,0.161
504,9.027018805483312,1020,1019.9935582516067,545,58.052188570688045,0.162
504,9.095060223287527,1020,1019.993548529891,542,57.463243560255286,0.163
505,9.183542048510807,1020,1019.9935388018529,539,56.87094694127823,0.164
512,9.369353376099964,1020,1019.993529067537,537,56.28551449999706,0.165
527,9.4245631939133,1020,1019.9935193269883,536,55.7141446523675,0.166
534,9.490196370799886,1020,1019.9935095802515,537,55.16009837579022,0.167
530,9.46999776224962,1020,1019.9934998273715,538,54.62242783999685,0.168
518,9.553925566408596,1020,1019.9934900683937,541,54.096382495940354,0.169
518,9.852946475602838,1020,1019.9934803033633,543,53.57442044972281,0.17
526,10.164304913009996,1020,1019.9934705323252,544,53.04766464059217,0.171
520,10.311882565071102,1020,1019.9934607553245,546,52.5075812017233,0.172
516,10.328075085006217,1020,1019.9934509724061,547,51.94762916349618,0.173
503,10.32450132597818,1020,1019.9934411836151,547,51.364637784703035,0.174
484,10.522814890251786,1020,1019.9934313889966,546,50.759707419942266,0.175
457,10.68014408548466,1020,1019.9934215885954,544,50.138496545259684,0.176
471,10.848753167702268,1020,1019.9934117824567,542,49.51084300165375,0.177
492,11.685036902833243,1020,1019.993401970626,539,48.889760181452836,0.178
504,12.608288060037271,1020,1019.9933921531482,536,48.28993610103669,0.179
513,12.789967019022047,1020,1019.9933823300684,533,47.725933643734464,0.18
515,12.99680876950013,1020,1019.9933725014315,531,47.21033466199235,0.181
522,13.669866324170918,1020,1019.9933626672822,529,46.75208289973144,0.182
522,14.933276576398239,1020,1019.993352827666,528,46.35525833259094,0.183
526,15.806760113070768,1020,1019.9933429826286,529,46.01846032485409,0.184
528,15.884162309670696,1020,1019.9933331322167,531,45.73489490769893,0.185
525,15.885204745007421,1020,1019.9933232764769,535,45.49316258710707,0.186
520,15.855461248155601,1020,1019.9933134154561,537,45.27864193171119,0.187
520,15.74989582974904,1020,1019.9933035492012,539,45.0752781582729,0.188
523,15.839332581137858,1020,1019.9932936777594,540,44.8675304167458,0.189
518,15.927464116632073,1020,1019.9932838011786,541,44.64221444706298,0.19
519,16.067196728248426,1020,1019.9932739195064,541,44.38999775206029,0.191
514,15.804325874773197,1020,1019.9932640327905,541,44.106355658558265,0.192
504,15.395349850582072,1020,1019.9932541410793,539,43.79187019131964,0.193
493,15.033510645623625,1020,1019.9932442444218,537,43.45184099433845,0.194
490,14.91281627315429,1020,1019.9932343428671,534,43.09526919473547,0.195
501,14.961565521195007,1020,1019.9932244364649,531,42.73336016482933,0.196
507,14.978461462457771,1020,1019.9932145252645,528,42.37775792197611,0.197
511,15.095027926206962,1020,1019.9932046093153,527,42.038762133935,0.198
521,15.275120736626077,1020,1019.9931946886662,525,41.72378178709285,0.199
523,15.239605398188836,1020,1019.9931847633665,525,41.436246292580876,0.2
530,14.769835816441809,1020,1019.9931748334651,527,41.17512950312975,0.201
564,13.78007578343793,1020,1019.9931648990108,529,40.93515366370225,0.202
556,13.147583607200554,1020,1019.9931549600523,531,40.70764121678239,0.203
523,12.95281939098245,1020,1019.9931450166386,534,40.4818877240085,0.204
494,13.048556228185438,1020,1019.9931350688192,536,40.24685367822077,0.205
478,13.291830476423529,1020,1019.9931251166439,537,39.99292747275975,0.206
441,13.521024767064713,1020,1019.9931151601617,538,39.71350172697286,0.207
461,13.335105282770042,1020,1019.9931051994221,539,39.406130815298525,0.208
498,13.40774215846442,1020,1019.9930952344752,537,39.07309461249853,0.209
506,13.418943507798284,1020,1019.993085265371,535,38.72127488743209,0.21
508,13.331738556710079,1020,1019.9930752921599,533,38.3613468951514,0.211
512,13.261785807729082,1020,1019.9930653148921,529,38.00638727520037,0.212
521,13.237977659869074,1020,1019.9930553336175,526,37.670086358768124,0.213
520,13.093879928510015,1020,1019.9930453483861,523,37.36481539087781,0.214
519,13.015691412859546,1020,1019.9930353592484,521,37.099826900572104,0.215
513,13.028272583827052,1020,1019.993025366255,521,36.879853504834394,0.216
508,13.013087680985516,1020,1019.9930153694562,522,36.70431663147205,0.217
508,13.044113968081742,1020,1019.993005368903,525,36.56726905661902,0.218
510,13.046816139908993,1020,1019.9929953646468,527,36.458087668654805,0.219
521,12.920656049810232,1020,1019.9929853567395,530,36.36282355307129,0.22
526,12.67335715557403,1020,1019.9929753452333,532,36.26602313085878,0.221
527,12.538682405890135,1020,1019.9929653301805,534,36.152769874141704,0.222
524,12.526087835582764,1020,1019.992955311633,536,36.01066783612408,0.223
516,12.520240403810144,1020,1019.9929452896421,536,35.831497147064105,0.224
515,12.376516956105336,1020,1019.9929352642592,536,35.61231530294901,0.225
508,12.392985251084081,1020,1019.9929252355363,535,35.35585111742162,0.226
502,12.295437107876486,1020,1019.9929152035251,532,35.070132161773714,0.227
503,11.478418130732935,1020,1019.9929051682774,529,34.767390088818054,0.228
499,10.673394621854753,1020,1019.9928951298447,526,34.46238811677956,0.229
498,10.616180926594577,1020,1019.9928850882778,523,34.17039705691485,0.23
496,10.432937864997673,1020,1019.9928750436274,520,33.90509805033852,0.231
511,9.807932019714183,1020,1019.9928649959442,519,33.676703330382,0.232
526,8.465146579390925,1020,1019.9928549452796,519,33.49055803890771,0.233
527,7.46260447452093,1020,1019.9928448916856,520,33.34641921601043,0.234
524,7.301818663181273,1020,1019.992834835214,523,33.23851129193661,0.235
522,7.433663038058847,1020,1019.9928247759166,527,33.156344979826926,0.236
519,7.716122292364076,1020,1019.9928147138452,529,33.08617612488922,0.237
511,7.979211706028803,1020,1019.9928046490512,531,33.01289087813774,0.238
505,7.916358197938474,1020,1019.9927945815865,533,32.92204768102656,0.239
505,7.726897681872483,1020,1019.9927845115034,535,32.80179130908236,0.24
506,7.567350024784841,1020,1019.9927744388536,534,32.64437827438217,0.241
508,7.501164295123954,1020,1019.9927643636887,534,32.44711084339913,0.242
504,7.598518218276529,1020,1019.99275428606,531,32.212561331091145,0.243
500,7.7229645698333425,1020,1019.9927442060192,529,31.9480686129389,0.244
503,7.758017477676665,1020,1019.9927341236183,525,31.66459110540181,0.245
508,7.568495606476013,1020,1019.9927240389092,523,31.375089923306117,0.246
509,7.348819469951659,1020,1019.9927139519431,520,31.092679399292514,0.247
511,7.152438660158795,1020,1019.9927038627715,519,30.82881050898929,0.248
516,6.928313936316619,1020,1019.9926937714457,519,30.59174243488946,0.249
523,6.877866713863504,1020,1019.9926836780172,519,30.385511079051202,0.25
528,6.816720396334496,1020,1019.9926735825378,520,30.209528743017955,0.251
522,6.761272447880447,1020,1019.9926634850589,523,30.058857858496403,0.252
519,6.589789013278749,1020,1019.9926533856318,526,29.92510622540248,0.253
519,6.418884419651914,1020,1019.9926432843084,527,29.797804550804354,0.254
517,6.264989872683491,1020,1019.9926331811401,529,29.66606163767382,0.255
514,6.233700534613996,1020,1019.9926230761788,531,29.520257682910984,0.256
512,6.114187526618047,1020,1019.9926129694767,531,29.35353502700241,0.257
511,6.226727678109845,1020,1019.9926028610861,531,29.162876161075094,0.258
508,6.021990494661237,1020,1019.9925927510598,530,28.949615896733,0.259
500,5.803224607783131,1020,1019.9925826394509,529,28.719311243802945,0.26
495,5.717508199598087,1020,1019.9925725263128,527,28.480979305749454,0.261
496,5.712391851219238,1020,1019.9925624116989,524,28.245800131526398,0.262
503,5.811675796588859,1020,1019.9925522956631,520,28.025458205428066,0.263
512,5.992369518142983,1020,1019.992542178259,518,27.83035335111315,0.264
510,5.951452552327092,1020,1019.9925320595406,516,27.667939163805595,0.265
511,5.929816887768045,1020,1019.9925219395622,516,27.541436707412643,0.266
518,5.92504127366309,1020,1019.9925118183781,517,27.44912145898271,0.267
519,5.864400934676989,1020,1019.9925016960436,520,27.38429900638793,0.268
513,5.790277560304683,1020,1019.9924915726141,523,27.33598342771519,0.269
512,5.7410275272772,1020,1019.9924814481454,524,27.290189172332262,0.27
515,5.832515044419222,1020,1019.9924713226936,527,27.23166011215138,0.271
517,6.042659497063907,1020,1019.9924611963141,528,27.145800852878278,0.272
513,6.219279284119057,1020,1019.9924510690624,530,27.020550530911684,0.273
508,6.310314222472703,1020,1019.9924409409945,531,26.847947663852338,0.274
510,6.289940532774595,1020,1019.9924308121662,531,26.62517349004129,0.275
511,6.216244725452602,1020,1019.9924206826335,529,26.35492700918264,0.276
511,6.113545319689183,1020,1019.9924105524518,527,26.04507177073441,0.277
510,6.076030885538272,1020,1019.9924004216772,524,25.707592545658674,0.278
507,6.051721882908051,1020,1019.992390290366,521,25.356995831579958,0.279
498,5.946530178431925,1020,1019.9923801585741,518,25.008367310705573,0.28
502,5.939920504046022,1020,1019.9923700263579,515,24.675350053271888,0.281
504,5.936260848333686,1020,1019.9923598937738,514,24.368321708077175,0.282
507,5.947001910355575,1020,1019.9923497608783,514,24.093023964547495,0.283
515,5.971037438623226,1020,1019.9923396277276,515,23.849835406604925,0.284
519,6.064287694026541,1020,1019.9923294943782,518,23.63378802917851,0.285
521,6.0470241551014015,1020,1019.9923193608869,520,23.43532234324696,0.286
523,5.884157795593956,1020,1019.992309227311,522,23.24167317171716,0.287
522,5.665185620066785,1020,1019.9922990937074,524,23.038693759360584,0.288
516,5.5406348662783165,1020,1019.9922889601324,526,22.812870652856564,0.289
518,5.600153015071662,1020,1019.9922788266434,527,22.553260707397346,0.29
517,5.742706506928676,1020,1019.9922686932981,527,22.253094624332622,0.291
513,5.938367274272112,1020,1019.9922585601543,527,21.910835917316692,0.292
507,6.085097813068958,1020,1019.9922484272696,526,21.530554841339296,0.293
502,6.23889336213385,1020,1019.9922382947015,523,21.121565582353078,0.294
498,6.4335306948666595,1020,1019.9922281625071,520,20.697371917547052,0.295
497,6.582017513282554,1020,1019.9922180307439,517,20.274060083620494,0.296
500,6.545858012762248,1020,1019.9922078994695,514,19.868354874361614,0.297
506,6.482872120321301,1020,1019.9921977687421,511,19.49560390890635,0.298
515,6.708108833459693,1020,1019.9921876386201,510,19.167967311777723,0.299
519,6.966967875275016,1020,1019.9921775091619,509,18.89306281530502,0.3
523,7.089738041015921,1020,1019.9921673804268,511,18.67325192209531,0.301
520,7.257044957849767,1020,1019.9921572524739,514,18.50565911419387,0.302
518,7.539215881122836,1020,1019.9921471253627,518,18.3829067927722,0.303
509,7.870843857039428,1020,1019.9921369991529,519,18.29444198541883,0.304
507,8.077241777433427,1020,1019.9921268739043,522,18.22824600195504,0.305
514,7.859191852840727,1020,1019.9921167496772,523,18.172669028824927,0.306
513,7.751509867331215,1020,1019.9921066265309,524,18.118122729211542,0.307
510,7.870295488176633,1020,1019.9920965045247,524,18.058392070544613,0.308
504,8.118526633825459,1020,1019.9920863837177,524,17.991385932925404,0.309
501,8.058742291595893,1020,1019.9920762641685,522,17.919226218071014,0.31
504,7.987509124887298,1020,1019.9920661459363,520,17.84766777047933,0.311
507,8.014833140369047,1020,1019.9920560290801,517,17.78493592448666,0.312
513,7.879627480221169,1020,1019.9920459136591,514,17.740153232731174,0.313
515,7.828927712966056,1020,1019.9920357997324,511,17.721589811315884,0.314
519,7.914550908208178,1020,1019.9920256873592,510,17.735002125050435,0.315
521,7.84044783722541,1020,1019.9920155765989,510,17.782316154223462,0.316
526,7.79551686031909,1020,1019.9920054675116,511,17.860862122216798,0.317
527,7.949796348808943,1020,1019.9919953601569,514,17.96328630069842,0.318
523,8.19033478582022,1020,1019.9919852545939,516,18.078164467679386,0.319
520,8.282295062638301,1020,1019.9919751508818,519,18.191238319880828,0.32
513,8.23330407851605,1020,1019.9919650490796,521,18.287106774977282,0.321
508,8.135367194165296,1020,1019.9919549492469,524,18.35114091174037,0.322
497,7.918062086826015,1020,1019.9919448514437,525,18.371361215449426,0.323
496,7.8519049795267355,1020,1019.9919347557296,526,18.34002110519279,0.324
503,7.894377209189796,1020,1019.9919246621647,525,18.254680052499015,0.325
502,7.960548182472735,1020,1019.991914570809,524,18.118617763113445,0.326
496,8.083935674038054,1020,1019.9919044817224,523,17.940528626383554,0.327
494,8.290561109434952,1020,1019.9918943949655,520,17.73353108135671,0.328
496,8.450728264462828,1020,1019.9918843105992,517,17.513617829881056,0.329
509,8.585259555866125,1020,1019.9918742286844,514,17.29774933944617,0.33
515,8.55980875581173,1020,1019.9918641492826,511,17.10184495399108,0.331
523,8.515912848791226,1020,1019.9918540724556,510,16.938944217014104,0.332
528,8.564037823868961,1020,1019.9918439982652,510,16.817790091749462,0.333
511,8.603266489158338,1020,1019.9918339267732,512,16.742026309873417,0.334
516,8.640872352330279,1020,1019.9918238580416,515,16.71011146894969,0.335
521,8.758036162216277,1020,1019.9918137921317,516,16.715947856750102,0.336
517,8.878353844400744,1020,1019.9918037291053,519,16.75012145582447,0.337
518,9.11650802012843,1020,1019.9917936690248,521,16.8015668467949,0.338
521,9.281167055836177,1020,1019.9917836119529,524,16.85941625906916,0.339
513,9.328726220103276,1020,1019.9917735579523,525,16.914769853647762,0.34
508,9.24496774598134,1020,1019.9917635070864,526,16.962135902085095,0.341
502,9.060439413380077,1020,1019.9917534594186,526,17.000334223870013,0.342
495,8.859038400248796,1020,1019.9917434150137,524,17.032729735901025,0.343
497,8.792636494214879,1020,1019.9917333739367,522,17.066756465811807,0.344
500,8.728616657733994,1020,1019.9917233362524,519,17.11279346958142,0.345
502,8.682405493899497,1020,1019.9917133020257,516,17.182548214502123,0.346
510,8.734289247619438,1020,1019.9917032713219,514,17.28717564063043,0.347
514,8.796240549257885,1020,1019.9916932442064,513,17.43540070609314,0.348
516,8.611014205300517,1020,1019.9916832207449,512,17.631912568363674,0.349
523,8.314423448705222,1020,1019.9916732010032,513,17.876260069033,0.35
528,8.228221325934873,1020,1019.9916631850477,515,18.162407248738532,0.351
531,8.09237122827838,1020,1019.9916531729444,518,18.479014792624497,0.352
525,7.903340395405537,1020,1019.9916431647592,520,18.810412001414925,0.353
521,7.621016387389494,1020,1019.9916331605581,524,19.138128977392142,0.354
515,7.346505929604095,1020,1019.9916231604069,527,19.442783961364892,0.355
512,7.4201980744228315,1020,1019.9916131643716,527,19.70607630671667,0.356
508,7.458694878902317,1020,1019.9916031725182,529,19.912626917139587,0.357
508,7.350426965454012,1020,1019.9915931849135,529,20.051434994927256,0.358
502,7.252867716712173,1020,1019.9915832016244,529,20.11677665793117,0.359
495,7.302523278703019,1020,1019.9915732227181,528,20.108448120384615,0.36
498,7.322739283020148,1020,1019.991563248262,525,20.031344455244408,0.361
495,7.356852966526833,1020,1019.9915532783233,522,19.89445536432502,0.362
502,7.521093200434036,1020,1019.9915433129694,519,19.709441030806264,0.363
505,7.557825698857424,1020,1019.991533352268,516,19.48901135821106,0.364
508,7.502589067685633,1020,1019.9915233962869,515,19.24535912222094,0.365
512,7.465057652184774,1020,1019.9915134450947,515,18.988885142751556,0.366
516,7.4626595329681,1020,1019.9915034987602,516,18.727402368104094,0.367
524,7.472455572718977,1020,1019.9914935573519,518,18.46592434518047,0.368
520,7.374498378465908,1020,1019.991483620939,520,18.207046290314032,0.369
518,7.275634509660376,1020,1019.9914736895902,523,17.951830356998812,0.37
516,7.183462781071905,1020,1019.9914637633741,525,17.701025795062833,0.371
518,7.0759388506263186,1020,1019.9914538423603,526,17.456401125896075,0.372
515,7.070150149685055,1020,1019.9914439266189,527,17.221946218878188,0.373
511,7.031001956901267,1020,1019.9914340162203,527,17.004718605842786,0.374
508,7.009600024679393,1020,1019.9914241112355,527,16.815156289387357,0.375
509,6.850225563276421,1020,1019.9914142117358,525,16.66675082544697,0.376
516,6.665965607453222,1020,1019.9914043177931,524,16.575060338893856,0.377
514,6.408387175348531,1020,1019.9913944294798,522,16.556132501684402,0.378
510,6.243222841037972,1020,1019.9913845468685,519,16.62449209082864,0.379
506,6.202881256959344,1020,1019.9913746700316,517,16.790916706293377,0.38
505,6.280630698370615,1020,1019.9913647990414,515,17.06026890002352,0.381
504,6.293185741411256,1020,1019.9913549339707,515,17.429666317601185,0.382
499,6.309420466543413,1020,1019.9913450748917,515,17.88724968569337,0.383
508,6.366638246647164,1020,1019.9913352218767,515,18.411753154465853,0.384
516,6.27581547372095,1020,1019.9913253749977,517,18.972999447171283,0.385
524,6.082747453020269,1020,1019.9913155343264,520,19.533342930974406,0.386
524,5.926521140076277,1020,1019.9913056999347,524,20.04997731559259,0.387
521,5.6803512142814325,1020,1019.9912958718945,527,20.477922949193292,0.388
517,5.5225514550759,1020,1019.9912860502776,529,20.77342533928413,0.389
512,5.417464250005923,1020,1019.9912762351563,531,20.89744414055714,0.39
507,5.435439460072843,1020,1019.9912664266034,532,20.818897119366316,0.391
502,5.700843430587149,1020,1019.9912566246911,533,20.51734593913332,0.392
499,5.949400752461167,1020,1019.9912468294918,533,19.984864938722488,0.393
502,6.0388585098708445,1020,1019.9912370410788,531,19.226914257632767,0.394
504,5.979928266894578,1020,1019.9912272595251,528,18.26213829903273,0.395
507,5.99098093401642,1020,1019.9912174849045,524,17.12112126516799,0.396
510,6.052947619044145,1020,1019.9912077172902,520,15.844241463133395,0.397
511,6.120454716353886,1020,1019.9911979567554,515,14.47886084033253,0.398
507,6.22724839271508,1020,1019.9911882033738,511,13.076152057260122,0.399
514,6.37289405508033,1020,1019.9911784572186,508,11.687892189997998,0.4
519,6.40435644847378,1020,1019.9911687183634,508,10.36353473532286,0.401
517,6.432881246476685,1020,1019.9911589868819,509,9.147811410164472,0.402
517,6.405927705972945,1020,1019.9911492628479,510,8.079022188451969,0.403
518,6.40812890433353,1020,1019.9911395463358,512,7.188063728578207,0.404
519,6.52140633213227,1020,1019.9911298374208,513,6.4981430503481326,0.405
512,6.596662118111899,1020,1019.9911201361782,515,6.025041356885386,0.406
507,6.5516863720609075,1020,1019.9911104426836,516,5.777741460293628,0.407
505,6.502490232268075,1020,1019.991100757013,517,5.759214221893295,0.408
506,6.515324570796474,1020,1019.9910910792422,518,5.967173427809877,0.409
505,6.762534486960369,1020,1019.9910814094482,518,6.394650527571387,0.41
505,6.8020903311005325,1020,1019.9910717477072,516,7.030304528364899,0.411
508,6.56335159880809,1020,1019.9910620940958,514,7.858459679755643,0.412
509,6.3075044853161994,1020,1019.9910524486899,512,8.858942799863346,0.413
513,6.148890276170744,1020,1019.9910428115658,511,10.00685844642043,0.414
515,6.104026920169038,1020,1019.9910331828004,511,11.27247913657538,0.415
526,6.105763826667494,1020,1019.991023562471,512,12.621430368308538,0.416
528,6.060897292066416,1020,1019.9910139506554,514,14.015315462560922,0.417
529,5.878684990941612,1020,1019.9910043474314,518,15.412859919383411,0.418
517,5.743697872059224,1020,1019.9909947528762,521,16.771570841730075,0.419
505,5.680934496948213,1020,1019.9909851670667,525,18.049818538431737,0.42
503,5.6440896763239286,1020,1019.9909755900793,528,19.209169419506424,0.421
502,5.620733257471521,1020,1019.99096602199,531,20.216743737041988,0.422
502,5.740822769281758,1020,1019.9909564628746,534,21.047345792102295,0.423
504,5.8568006517529785,1020,1019.9909469128091,536,21.685120536976076,0.424
507,5.801925626124425,1020,1019.99093737187,536,22.12452866935056,0.425
508,5.866909879036982,1020,1019.9909278401336,535,22.370499643776096,0.426
508,5.85502506876999,1020,1019.9909183176763,533,22.43771230035013,0.427
509,5.9217565489207376,1020,1019.9909088045746,531,22.349055032366042,0.428
505,6.033475253411208,1020,1019.9908993009052,527,22.133417192710628,0.429
503,6.023348391423751,1020,1019.9908898067455,524,21.823046450389548,0.43
508,5.917144410240811,1020,1019.9908803221728,521,21.450761156593686,0.431
517,5.922018731332738,1020,1019.9908708472643,520,21.04732365629054,0.432
524,5.9881373225584005,1020,1019.9908613820979,521,20.63925554524402,0.433
528,6.04685034525582,1020,1019.9908519267518,521,20.247311864984532,0.434
519,6.0146178154590375,1020,1019.9908424813046,523,19.885738941800962,0.435
513,5.96617232122753,1020,1019.9908330458346,525,19.562335880739777,0.436
511,6.036352009601725,1020,1019.99082362042,527,19.27923854486536,0.437
514,6.101499768304304,1020,1019.9908142051389,529,19.034260029631938,0.438
516,6.1735375036808025,1020,1019.9908048000697,531,18.822562488664,0.439
513,6.195814467225919,1020,1019.99079540529,532,18.63840747634743,0.44
513,6.24352370733251,1020,1019.9907860208772,532,18.476737777670653,0.441
512,6.12405061888458,1020,1019.990776646909,531,18.334381139271727,0.442
507,5.913312504547629,1020,1019.9907672834637,531,18.21072946532198,0.443
506,5.692761536901927,1020,1019.990757930619,529,18.107826412134585,0.444
507,5.624561379095482,1020,1019.9907485884527,527,18.02988108970541,0.445
509,5.504070559446825,1020,1019.990739257042,525,17.982305882425834,0.446
505,5.370665413387243,1020,1019.9907299364648,522,17.97044350972495,0.447
506,5.213672942857586,1020,1019.9907206267993,520,17.99819410351078,0.448
513,5.0518109540081655,1020,1019.9907113281237,519,18.06677004734275,0.449
518,4.977212843936797,1020,1019.9907020405161,519,18.173790060094635,0.45
519,4.927744020592431,1020,1019.9906927640549,521,18.312874630420847,0.451
521,4.93225177527235,1020,1019.9906834988182,523,18.473828734608873,0.452
523,5.0818630987673945,1020,1019.9906742448846,526,18.643407079273814,0.453
518,5.325300984538783,1020,1019.9906650023325,528,18.806567477926713,0.454
514,5.3774404616780505,1020,1019.9906557712405,531,18.94804429740798,0.455
510,5.280703853858115,1020,1019.9906465516873,532,19.054027096313877,0.456
504,5.234055995318952,1020,1019.9906373437519,532,19.11371508636298,0.457
502,5.169226931786336,1020,1019.990628147514,533,19.120535836313152,0.458
508,4.996528026530338,1020,1019.9906189630536,533,19.072861687118976,0.459
507,4.808366580337778,1020,1019.9906097904503,533,18.974121664280815,0.46
502,4.877833592387752,1020,1019.9906006297832,530,18.832282526165258,0.461
504,5.045394406112301,1020,1019.9905914811319,527,18.658753490346992,0.462
506,5.170280851174834,1020,1019.990582344576,525,18.4668471749678,0.463
509,5.293889730891643,1020,1019.990573220195,523,18.26999299490713,0.464
518,5.267855950231349,1020,1019.990564108069,521,18.079936971026076,0.465
519,5.308886296679319,1020,1019.990555008278,519,17.905166887241258,0.466
518,5.2848518832006075,1020,1019.9905459209016,520,17.749773506536098,0.467
517,5.344750472959136,1020,1019.9905368460198,522,17.612900749088805,0.468
514,5.31090783586326,1020,1019.9905277837128,523,17.48885744698498,0.469
512,5.350619439291352,1020,1019.9905187340604,525,17.367872399306307,0.47
513,5.517660202709945,1020,1019.9905096971428,527,17.237387779933762,0.471
513,5.716954271438932,1020,1019.99050067304,529,17.08371613607715,0.472
513,5.764184694060597,1020,1019.9904916618315,531,16.893840943542042,0.473
515,5.763484330035961,1020,1019.9904826635969,532,16.657124041230517,0.474
514,5.7572694911774605,1020,1019.9904736784164,532,16.36669727442707,0.475
507,5.757461173149966,1020,1019.9904647063703,531,16.020359649821604,0.476
501,5.753374054231989,1020,1019.9904557475387,529,15.620870443467432,0.477
496,5.733018694629853,1020,1019.9904468020017,527,15.175613792736037,0.478
503,5.591637301650346,1020,1019.9904378698396,524,14.695699192549522,0.479
507,5.491421502868785,1020,1019.9904289511336,520,14.194642388765853,0.48
511,5.592655137656625,1020,1019.990420045964,517,13.686831108844379,0.481
513,5.7438466870303255,1020,1019.9904111544114,516,13.186010368197195,0.482
516,5.661812501295837,1020,1019.9904022765562,515,12.704016065630084,0.483
518,5.497320437689356,1020,1019.9903934124794,515,12.249942288073422,0.484
523,5.473025668353883,1020,1019.9903845622615,517,11.829853835724581,0.485
521,5.523631201342228,1020,1019.9903757259839,519,11.447063292920587,0.486
519,5.579046900828546,1020,1019.9903669037279,522,11.102896138981917,0.487
520,5.543580162117899,1020,1019.9903580955746,524,10.797782907737043,0.488
515,5.51414731624322,1020,1019.9903493016049,526,10.532457976533557,0.489
515,5.492759679250335,1020,1019.9903405218996,526,10.309019881999152,0.49
512,5.379484386740667,1020,1019.9903317565403,527,10.131621402916922,0.491
509,5.326581497549333,1020,1019.9903230056083,527,10.00660565532321,0.492
509,5.353376409202445,1020,1019.990314269185,526,9.941979227102127,0.493
504,5.443596265374123,1020,1019.9903055473518,524,9.946205557984033,0.494
499,5.694248160261049,1020,1019.9902968401901,521,10.026401734135607,0.495
499,5.964543417821511,1020,1019.9902881477809,518,10.186118635830786,0.496
503,6.081261288549958,1020,1019.9902794702051,516,10.422964897472006,0.497
506,6.135656989514896,1020,1019.9902708075432,514,10.726386414673275,0.498
513,6.33884214408429,1020,1019.9902621598757,513,11.075926022840484,0.499
518,6.636496493855511,1020,1019.9902535272835,514,11.440259706904873,0.5
519,7.081283119562141,1020,1019.9902449098466,515,11.777239930877716,0.501
520,7.404556511912694,1020,1019.9902363076452,516,12.035082267666215,0.502
516,7.527534665152037,1020,1019.9902277207592,518,12.154720819361323,0.503
513,7.454729615305233,1020,1019.9902191492678,520,12.073243987862156,0.504
519,7.31600896478549,1020,1019.9902105932505,522,11.728216141855581,0.505
520,7.300794823436156,1020,1019.9902020527869,524,11.062601607394745,0.506
515,7.365172062047954,1020,1019.9901935279566,524,10.029942844945213,0.507
510,7.418954084492119,1020,1019.9901850188393,524,8.599410534915638,0.508
509,7.5087793123726145,1020,1019.9901765255139,523,6.760341962612564,0.509
504,7.626953458930807,1020,1019.9901680480597,522,4.5259136732908845,0.51
499,7.608255954636727,1020,1019.9901595865553,519,1.9356500531814747,0.511
505,7.611637444769409,1020,1019.9901511410793,516,-0.9434541644865713,0.512
515,7.724193917576325,1020,1019.9901427117105,512,-4.0173278768235585,0.513
511,7.811902719028865,1020,1019.9901342985266,507,-7.166763959638685,0.514
510,7.937279915910829,1020,1019.9901259016045,502,-10.250834172338253,0.515
515,7.927175041250251,1020,1019.9901175210206,498,-13.111612497964014,0.516
519,7.966355240907998,1020,1019.9901091568512,494,-15.579962157954112,0.517
520,7.916900840263702,1020,1019.9901008091732,493,-17.48208473381696,0.518
526,7.937835201281987,1020,1019.9900924780635,491,-18.646496831926136,0.519
524,8.011257218984968,1020,1019.9900841635989,490,-18.91108774629695,0.52
518,8.071565149786084,1020,1019.9900758658558,491,-18.129915084501604,0.521
505,7.949795792907441,1020,1019.9900675849107,493,-16.1794095134807,0.522
499,7.866382879218622,1020,1019.9900593208394,496,-12.963682192457593,0.523
491,7.905725916250898,1020,1019.9900510737174,499,-8.418657740189657,0.524
486,7.931188589275732,1020,1019.9900428436198,502,-2.514790744332791,0.525
490,7.892781576640758,1020,1019.9900346306221,507,4.7418336225691,0.526
493,7.8026038671127935,1020,1019.9900264347988,513,13.310158172370162,0.527
499,7.665095305501753,1020,1019.990018256225,523,23.11663581987909,0.528
508,7.585642132105094,1020,1019.9900100949757,537,34.059491056524536,0.529
514,7.559885528180422,1020,1019.9900019511259,555,46.014579963614906,0.53
515,7.4934636765856615,1020,1019.9899938247507,574,58.84251725075685,0.531
515,7.482296713784426,1020,1019.9899857159252,591,72.3965998115704,0.532
519,7.514784391700115,1020,1019.9899776247242,606,86.53095896864751,0.533
523,7.522925347767515,1020,1019.9899695512225,622,101.10833938191007,0.534
521,7.574042226384627,1020,1019.9899614954951,636,116.00693498117238,0.535
520,7.490915046286402,1020,1019.9899534576169,648,131.12579792820355,0.536
524,7.267387642223425,1020,1019.9899454376626,662,146.3884543257617,0.537
523,7.225779459424725,1020,1019.9899374357072,679,161.744488810924,0.538
521,7.232959847263698,1020,1019.9899294518253,696,177.16898243663272,0.539
513,7.392936772189566,1020,1019.989921486091,714,192.65979732309458,0.54
510,7.600404113086423,1020,1019.9899135385775,731,208.23280322584358,0.541
510,7.6332493911538934,1020,1019.9899056093581,745,223.91524874681323,0.542
508,7.601815314082685,1020,1019.9898976985058,758,239.7376036532014,0.543
499,7.654871086796856,1020,1019.9898898060941,768,255.72433765668723,0.544
496,7.600324690530184,1020,1019.989881932196,775,271.8842404308162,0.545
504,7.430171368074316,1020,1019.9898740768848,785,288.2010018544542,0.546
517,7.292497614809426,1020,1019.9898662402337,799,304.6248294996857,0.547
519,7.2137300969219496,1020,1019.9898584223164,817,321.0658558993311,0.548
514,7.015305075047196,1020,1019.989850623206,837,337.3899721897825,0.549
507,6.726011383299162,1020,1019.9898428429759,856,353.4175336380348,0.55
509,6.312315655866648,1020,1019.9898350816987,873,368.92515216852536,0.551
510,5.939818869984684,1020,1019.9898273394473,889,383.65055990984933,0.552
511,5.750824671374586,1020,1019.9898196162948,903,397.3003217934115,0.553
512,5.654066544413195,1020,1019.9898119123135,918,409.56000269273846,0.554
515,5.668246531155034,1020,1019.9898042275753,933,420.1062527209156,0.555
520,5.651352973034243,1020,1019.989796562152,944,428.62015986280295,0.556
516,5.577060284620764,1020,1019.9897889161156,955,434.80113553220406,0.557
513,5.518915068819468,1020,1019.9897812895382,961,438.3805554482067,0.558
506,5.428433582577785,1020,1019.9897736824918,963,439.1343850299305,0.559
509,5.28899171168566,1020,1019.9897660950472,962,436.8940794741517,0.56
510,5.305949501971056,1020,1019.989758527276,957,431.55516057528143,0.561
508,5.322986650630851,1020,1019.9897509792498,946,423.0830255716153,0.562
507,5.129542964613605,1020,1019.9897434510402,931,411.5157243478218,0.563
502,4.902362622429569,1020,1019.9897359427181,914,396.96363422884764,0.564
500,4.756620196675065,1020,1019.9897284543543,894,379.6061481215055,0.565
504,4.878237310087075,1020,1019.98972098602,872,359.6856539388414,0.566
518,4.9946781509940905,1020,1019.9897135377859,848,337.4992086250673,0.567
524,5.005031851182549,1020,1019.989706109723,823,313.38839434539216,0.568
524,4.9377640459492245,1020,1019.9896987019027,798,287.7278893818897,0.569
517,4.716469017413579,1020,1019.9896913143965,769,260.9132973743502,0.57
512,4.3974384603600125,1020,1019.9896839472757,740,233.34876303060597,0.571
512,4.258933023003932,1020,1019.9896766006112,712,205.43486681807445,0.572
510,4.201356299422727,1020,1019.9896692744741,686,177.5572383868908,0.573
507,4.071104992208372,1020,1019.9896619689351,660,150.07625955544341,0.574
508,4.086805053265111,1020,1019.9896546840645,635,123.3181472477031,0.575
510,4.153801481671128,1020,1019.9896474199317,609,97.56762521497357,0.576
504,4.321551699067481,1020,1019.9896401766058,583,73.06232180788997,0.577
505,4.449612066353156,1020,1019.989632954156,559,49.98897419791227,0.578
509,4.5637979958694155,1020,1019.9896257526515,539,28.48147312696661,0.579
509,4.599819335093198,1020,1019.9896185721608,519,8.620737669132401,0.58
513,4.71869936538412,1020,1019.9896114127527,502,-9.563639274458975,0.581
513,4.989974295702611,1020,1019.9896042744953,486,-26.09008575172668,0.582
516,5.283101935526007,1020,1019.9895971574568,470,-41.02024595159002,0.583
517,5.432606808366019,1020,1019.9895900617056,456,-54.4528782175197,0.584
523,5.367215745585779,1020,1019.9895829873097,444,-66.51669371699282,0.585
522,5.354509820276078,1020,1019.989575934337,433,-77.3624060051412,0.586
515,5.482148122146643,1020,1019.9895689028548,425,-87.15429537790654,0.587
513,5.514845101034693,1020,1019.9895618929303,419,-96.06162765871304,0.588
510,5.465085809549067,1020,1019.9895549046304,414,-104.25030027703608,0.589
504,5.327813266093393,1020,1019.9895479380224,408,-111.87510949558634,0.59
504,5.216941873262199,1020,1019.9895409931736,403,-119.07302941836912,0.591
511,5.262307134138927,1020,1019.9895340701513,396,-125.95785655245217,0.592
511,5.231964296924918,1020,1019.9895271690228,389,-132.6165007629243,0.593
513,5.175034321429588,1020,1019.989520289855,382,-139.10709968253417,0.594
512,5.2866790609637775,1020,1019.9895134327147,373,-145.45900949085203,0.595
512,5.433526627507193,1020,1019.9895065976683,365,-151.67459316259752,0.596
514,5.5864646578283885,1020,1019.9894997847817,357,-157.73260056234085,0.597
513,5.657780609442146,1020,1019.989492994121,348,-163.59282469896442,0.598
515,5.6306278140563295,1020,1019.9894862257523,339,-169.2016344635752,0.599
519,5.675613768666073,1020,1019.9894794797418,332,-174.49793326194043,0.6
523,5.897152883824897,1020,1019.9894727561554,326,-179.41908035150104,0.601
519,6.059914821519201,1020,1019.9894660550589,321,-183.90634022986023,0.602
518,5.976570301384924,1020,1019.9894593765183,318,-187.90949293763512,0.603
513,5.998233494466997,1020,1019.9894527205987,316,-191.39033638505006,0.604
502,6.069876946054203,1020,1019.9894460873646,315,-194.32492846483947,0.605
489,6.150368325617817,1020,1019.9894394768811,315,-196.70453810037955,0.606
492,6.206694501621974,1020,1019.9894328892123,315,-198.5353873809644,0.607
502,6.3487967813370325,1020,1019.9894263244227,315,-199.83736067328064,0.608
510,6.46091138983839,1020,1019.9894197825773,316,-200.64192393361162,0.609
509,6.447644729713667,1020,1019.9894132637404,318,-200.98953552630618,0.61
504,6.256892111223545,1020,1019.9894067679764,319,-200.92683892236565,0.611
506,6.101886173687405,1020,1019.9894002953496,319,-200.50390885623491,0.612
513,6.066189614940035,1020,1019.9893938459235,319,-199.77177750646692,0.613
513,6.084616588811642,1020,1019.9893874197613,318,-198.78040061974335,0.614
517,6.125217773629233,1020,1019.9893810169268,317,-197.5771446653676,0.615
520,6.0436945161768305,1020,1019.9893746374836,318,-196.2057977634524,0.616
516,5.966885891022254,1020,1019.9893682814949,317,-194.70604126791218,0.617
521,5.986658058429884,1020,1019.989361949023,318,-193.11327352815525,0.618
529,6.054122768142495,1020,1019.9893556401292,319,-191.45865559799586,0.619
524,6.127990969835829,1020,1019.9893493548742,320,-189.76924999481028,0.62
519,6.196723701508352,1020,1019.9893430933183,323,-188.06814544047094,0.621
515,6.411707381550552,1020,1019.9893368555216,326,-186.3744983528733,0.622
511,6.476300186721976,1020,1019.9893306415441,329,-184.70346894969586,0.623
504,6.5110690159116205,1020,1019.9893244514459,332,-183.0660774326773,0.624
496,6.491287711291555,1020,1019.9893182852865,335,-181.46904474969378,0.625
501,6.450503921046211,1020,1019.989312143125,337,-179.9147059617676,0.626
507,6.398582246494983,1020,1019.9893060250205,339,-178.40108903177648,0.627
503,6.3693597200956455,1020,1019.9892999310317,341,-176.9222381298429,0.628
504,6.321353700337459,1020,1019.9892938612164,342,-175.46883108147784,0.629
504,6.447877015586183,1020,1019.9892878156319,342,-174.02909960110495,0.63
507,6.4411647004600106,1020,1019.9892817943349,342,-172.59001354661407,0.631
519,6.174411787862706,1020,1019.989275797382,342,-171.13864298369376,0.632
520,5.852653644512578,1020,1019.9892698248294,341,-169.66357222036584,0.633
515,5.705207230452639,1020,1019.9892638767332,342,-168.15621601479467,0.634
512,5.688790337255627,1020,1019.9892579531487,343,-166.61188563580063,0.635
508,5.799361987384231,1020,1019.9892520541306,345,-165.0304735939977,0.636
512,5.853971463937539,1020,1019.9892461797339,348,-163.41666838332864,0.637
512,5.903033798434365,1020,1019.9892403300136,351,-161.77966766730242,0.638
507,5.9700787710516785,1020,1019.9892345050242,354,-160.13242029909566,0.639
506,5.9922996015439995,1020,1019.9892287048204,357,-158.49048428419238,0.64
507,5.957514519041452,1020,1019.9892229294563,359,-156.87063114153108,0.641
508,5.870708206102317,1020,1019.989217178986,362,-155.28935248805425,0.642
515,6.005635268422331,1020,1019.9892114534636,364,-153.7614311401974,0.643
515,6.000861259689654,1020,1019.989205752944,366,-152.29872803734418,0.644
507,5.728173406714932,1020,1019.9892000774829,368,-150.90930998803051,0.645
500,5.579129216277609,1020,1019.9891944271357,368,-149.5970038047327,0.646
505,5.657770115938176,1020,1019.9891888019573,368,-148.36141270975222,0.647
508,5.783315618065295,1020,1019.9891832020029,368,-147.19837573590792,0.648
508,5.911187773235138,1020,1019.989177627327,368,-146.10079730645745,0.649
517,5.790212951718418,1020,1019.9891720779841,367,-145.0597301653496,0.65
518,5.63259233450221,1020,1019.9891665540284,367,-144.0655665475617,0.651
518,5.614161904719024,1020,1019.989161055514,368,-143.109183451823,0.652
513,5.607534360989303,1020,1019.9891555824942,369,-142.18289931239963,0.653
520,5.580969864267984,1020,1019.9891501350215,370,-141.28112964808167,0.654
519,5.630688081328206,1020,1019.9891447131494,372,-140.40067333367367,0.655
520,5.629500710743623,1020,1019.9891393169313,374,-139.54061191742565,0.656
513,5.624066976859359,1020,1019.989133946421,376,-138.7018550037761,0.657
510,5.533224444097772,1020,1019.9891286016717,378,-137.88640908413498,0.658
510,5.495639244801545,1020,1019.9891232827362,380,-137.0964800703391,0.659
504,5.473449188644592,1020,1019.9891179896662,381,-136.33353734649657,0.66
499,5.66075020856838,1020,1019.9891127225127,382,-135.59746778731855,0.661
504,5.893468132914042,1020,1019.9891074813266,383,-134.8859327086136,0.662
504,6.084413191266964,1020,1019.9891022661585,384,-134.19401206349303,0.663
508,6.277085695946971,1020,1019.9890970770588,384,-133.51418233032933,0.664
505,6.3312584801775875,1020,1019.9890919140779,383,-132.83663112628085,0.665
516,6.266924819667454,1020,1019.9890867772668,382,-132.1498663098639,0.666
521,6.2737373383482735,1020,1019.9890816666765,381,-131.44153562081792,0.667
521,6.232388604112871,1020,1019.9890765823578,381,-130.6993422373984,0.668
514,6.257445848945486,1020,1019.9890715243617,382,-129.91192904475844,0.669
505,6.334063712488197,1020,1019.9890664927387,382,-129.06961300109128,0.67
498,6.391513108890825,1020,1019.9890614875393,384,-128.16487856626367,0.671
500,6.3810457879136395,1020,1019.9890565088134,387,-127.19257982951332,0.672
504,6.286810718858153,1020,1019.9890515566111,388,-126.14984746054817,0.673
511,6.3223158184340225,1020,1019.989046630982,390,-125.03574126750901,0.674
518,6.449228252230976,1020,1019.9890417319751,392,-123.85072509715089,0.675
519,6.657850961857675,1020,1019.9890368596397,395,-122.5960641242515,0.676
515,6.678056373793051,1020,1019.9890320140242,397,-121.27325448943525,0.677
504,6.67444784452454,1020,1019.9890271951771,399,-119.88359151300827,0.678
503,6.731515752000305,1020,1019.9890224031459,400,-118.42796424135997,0.679
504,6.612237294015999,1020,1019.989017637978,401,-116.90693091178629,0.68
509,6.669587089654205,1020,1019.9890128997212,401,-115.321085447784,0.681
507,6.724931440561955,1020,1019.9890081884231,401,-113.67167593489488,0.682
505,6.697317008312542,1020,1019.9890035041311,402,-111.96139033056883,0.683
508,6.769274652244246,1020,1019.9889988468925,402,-110.19519025583328,0.684
523,6.856434452013262,1020,1019.9889942167546,403,-108.3810563471503,0.685
526,6.805614039768502,1020,1019.9889896137641,404,-106.53051099329127,0.686
523,6.6819828047590315,1020,1019.9889850379681,407,-104.65880632940974,0.687
524,6.604010804813571,1020,1019.9889804894127,410,-102.78470483531,0.688
519,6.505643496153194,1020,1019.988975968144,413,-100.92983152407798,0.689
512,6.507465096969429,1020,1019.988971474207,415,-99.11763206659738,0.69
508,6.518831306368683,1020,1019.9889670076467,418,-97.37202117403946,0.691
513,6.464745174714392,1020,1019.9889625685072,421,-95.71584403571013,0.692
507,6.2822199689035365,1020,1019.9889581568326,424,-94.16929832929083,0.693
505,6.12231356695603,1020,1019.9889537726666,426,-92.748474423961,0.694
506,6.1258204704820205,1020,1019.9889494160533,428,-91.46416536716737,0.695
503,6.190433585366132,1020,1019.9889450870363,429,-90.3210748730992,0.696
512,6.425485393177975,1020,1019.9889407856589,430,-89.31751195065274,0.697
518,6.633134516475596,1020,1019.9889365119647,429,-88.44560890392926,0.698
521,6.642186284150114,1020,1019.9889322659968,428,-87.69204101070204,0.699
529,6.726131872930608,1020,1019.988928047799,428,-87.03916853351693,0.7
522,6.634356097011661,1020,1019.988923857415,426,-86.46647315767541,0.701
519,6.586187953433669,1020,1019.9889196948883,425,-85.95212902478636,0.702
519,6.832489770397621,1020,1019.9889155602626,426,-85.47453816897341,0.703
510,6.974904166928485,1020,1019.9889114535812,427,-85.01367318129715,0.704
500,7.165520855872078,1020,1019.9889073748867,428,-84.55210435629903,0.705
501,7.464415109627022,1020,1019.9889033242215,429,-84.07563769251527,0.706
510,7.671618587198662,1020,1019.9888993016269,431,-83.57354431381901,0.707
507,7.682893836019241,1020,1019.9888953071444,433,-83.0384127300227,0.708
507,7.6375360276891495,1020,1019.9888913408153,434,-82.4656972946204,0.709
507,7.71738530016436,1020,1019.9888874026805,435,-81.85306534783845,0.71
508,7.7067030057139085,1020,1019.9888834927809,437,-81.19965937199227,0.711
515,7.576421651412036,1020,1019.9888796111571,438,-80.50538899057375,0.712
512,7.56190500623223,1020,1019.9888757578491,439,-79.77035264154665,0.713
508,7.581751365886963,1020,1019.9888719328968,439,-78.99446214860765,0.714
507,7.483545558079789,1020,1019.9888681363399,438,-78.17730725475478,0.715
509,7.515150539075943,1020,1019.9888643682169,438,-77.31825564336143,0.716
509,7.436412173436018,1020,1019.9888606285662,438,-76.41674407616371,0.717
509,7.461342793903295,1020,1019.9888569174258,438,-75.4726858030015,0.718
516,7.444952347651035,1020,1019.9888532348335,439,-74.48690360747905,0.719
520,7.312030981699243,1020,1019.9888495808272,439,-73.46149793762935,0.72
535,7.30665100667767,1020,1019.9888459554435,441,-72.40007369667008,0.721
532,7.138909872710147,1020,1019.9888423587194,443,-71.307774278736,0.722
518,7.165250730610122,1020,1019.9888387906911,444,-70.19110332380369,0.723
516,7.186123875034412,1020,1019.9888352513952,446,-69.05754841568579,0.724
513,7.059352460368281,1020,1019.988831740868,448,-67.91505147181383,0.725
505,6.842632300686436,1020,1019.988828259145,450,-66.77139437478499,0.726
495,6.777476774024582,1020,1019.9888248062615,452,-65.63358362361282,0.727
498,6.817642614120256,1020,1019.9888213822527,454,-64.50732288765265,0.728
492,6.755041136548907,1020,1019.9888179871531,456,-63.396655672462785,0.729
490,6.939903238847486,1020,1019.9888146209972,456,-62.30384086700694,0.73
497,7.0390084426793695,1020,1019.9888112838197,456,-61.22949231228703,0.731
507,6.990115270257955,1020,1019.988807975655,456,-60.172972980610666,0.732
516,7.141088466411635,1020,1019.9888046965374,456,-59.13299148729566,0.733
519,7.402013750527623,1020,1019.9888014465004,455,-58.10831175600287,0.734
521,7.504029839342071,1020,1019.9887982255776,455,-57.09846266744763,0.735
519,7.407753416252478,1020,1019.9887950338028,455,-56.10432778238466,0.736
521,7.537789276864551,1020,1019.9887918712096,457,-55.128507996407414,0.737
524,7.749995576222383,1020,1019.9887887378312,459,-54.17538193491603,0.738
513,7.872194490048562,1020,1019.9887856337008,461,-53.25083548736399,0.739
509,7.8640102644492424,1020,1019.9887825588511,463,-52.36168435467919,0.74
511,7.914966311480231,1020,1019.9887795133153,465,-51.51486183810437,0.741
510,7.896903726886339,1020,1019.9887764971262,467,-50.71648069361112,0.742
507,8.019105764081104,1020,1019.988773510316,469,-49.97089870188089,0.743
513,8.087762218919258,1020,1019.9887705529171,470,-49.279921116626625,0.744
518,8.06806356430531,1020,1019.9887676249617,471,-48.64225905830563,0.745
513,7.978653738793533,1020,1019.9887647264817,471,-48.053332299393226,0.746
510,7.592988057163392,1020,1019.9887618575093,470,-47.50546098295771,0.747
505,7.2008463336592525,1020,1019.9887590180764,470,-46.98843927713533,0.748
510,7.130064347572478,1020,1019.9887562082148,469,-46.49043215353804,0.749
516,7.141826452585759,1020,1019.9887534279559,468,-45.999091873262635,0.75
518,7.28556463217579,1020,1019.988750677331,467,-45.50275927709656,0.751
519,7.290401137369389,1020,1019.9887479563716,467,-44.99160046307038,0.752
515,7.02404871382704,1020,1019.9887452651091,467,-44.458534166437325,0.753
499,6.839550691130761,1020,1019.9887426035742,468,-43.89982946237055,0.754
494,6.643639010342487,1020,1019.9887399717976,470,-43.31529460792848,0.755
502,6.293322877565208,1020,1019.9887373698092,471,-42.70803010981745,0.756
521,6.097706313149315,1020,1019.9887347976386,473,-42.083774667329095,0.757
529,6.063210531299886,1020,1019.9887322553149,476,-41.449923571758944,0.758
521,5.978094713866123,1020,1019.9887297428667,477,-40.81433890388868,0.759
511,5.842816172060222,1020,1019.9887272603227,478,-40.184094650720446,0.76
500,5.766437900231076,1020,1019.9887248077106,479,-39.5643048136314,0.761
497,5.642755788803462,1020,1019.9887223850582,480,-38.957169100516474,0.762
504,5.534626855487565,1020,1019.9887199923936,480,-38.36134275407457,0.763
508,5.424850677021975,1020,1019.9887176297442,481,-37.77169950969868,0.764
503,5.552496604112951,1020,1019.9887152971368,481,-37.17951370002524,0.765
512,5.563001267195435,1020,1019.9887129945977,480,-36.57304230137905,0.766
519,5.591380044385567,1020,1019.9887107221533,479,-35.93844345980407,0.767
516,5.635780786855222,1020,1019.98870847983,479,-35.26092901541986,0.768
514,5.674832856754597,1020,1019.9887062676543,478,-34.52602041729968,0.769
515,5.7729895369151025,1020,1019.9887040856519,478,-33.72076558473639,0.77
515,5.824060242998876,1020,1019.9887019338488,480,-32.834781516920344,0.771
509,5.936914685976959,1020,1019.9886998122705,481,-31.8610130846761,0.772
507,6.03795206216372,1020,1019.9886977209416,483,-30.79613832746958,0.773
505,6.010197861957491,1020,1019.9886956598865,484,-29.64059775967989,0.774
501,5.972266089017174,1020,1019.9886936291294,487,-28.398272209117827,0.775
504,5.895827494187046,1020,1019.9886916286945,491,-27.075875208538598,0.776
508,5.791544472095602,1020,1019.9886896586053,493,-25.682158126816095,0.777
515,5.71178823605013,1020,1019.9886877188854,494,-24.227044426901884,0.778
519,5.823715286786785,1020,1019.9886858095587,496,-22.72080901777871,0.779
515,5.81351880105166,1020,1019.9886839306481,497,-21.17339915957413,0.78
514,5.641493896208707,1020,1019.9886820821765,498,-19.593960118390314,0.781
514,5.467229079875581,1020,1019.9886802641662,498,-17.990589434836803,0.782
511,5.291096288442456,1020,1019.9886784766394,499,-16.37030484933368,0.783
512,4.929478698245065,1020,1019.9886767196175,500,-14.739177998962427,0.784
504,4.805185531997231,1020,1019.988674993121,500,-13.102563589433721,0.785
510,4.885833136201154,1020,1019.9886732971698,502,-11.46534476590048,0.786
515,4.6964048704340335,1020,1019.9886716317836,503,-9.832120530340042,0.787
518,4.41646678467019,1020,1019.9886699969819,506,-8.207279189185948,0.788
519,4.391370117876152,1020,1019.9886683927842,509,-6.594930006718247,0.789
514,4.453281896531962,1020,1019.9886668192092,511,-4.998698048847095,0.79
513,4.526460037548528,1020,1019.9886652762756,512,-3.4214174503024215,0.791
507,4.740133758456916,1020,1019.9886637640014,515,-1.8647799711100517,0.792
505,4.70204236661285,1020,1019.9886622824055,518,-0.32900659214759675,0.793
504,4.851628017854123,1020,1019.9886608315059,519,1.187388976117588,0.794
503,4.81101423002533,1020,1019.9886594113203,520,2.6876840305615772,0.795
503,4.840251971060155,1020,1019.9886580218666,522,4.1768346233795945,0.796
505,4.8456040550103845,1020,1019.988656663162,523,5.661149748139437,0.797
506,4.916308279113295,1020,1019.9886553352234,524,7.147763937380258,0.798
512,4.950595477943254,1020,1019.9886540380675,524,8.643949610102007,0.799
512,5.076491314198974,1020,1019.9886527717111,525,10.156336903638934,0.8
513,5.101577073322313,1020,1019.9886515361708,525,11.690129061438654,0.801
515,5.040430831744523,1020,1019.9886503314627,526,13.248411755635328,0.802
521,5.037164357368134,1020,1019.9886491576029,527,14.831651639301388,0.803
522,4.980258498751131,1020,1019.9886480146068,529,16.437461573541558,0.804
521,4.932999261967849,1020,1019.9886469024894,532,18.060678469741006,0.805
511,5.008239587553846,1020,1019.9886458212662,535,19.69375849667826,0.806
511,5.005931138943835,1020,1019.9886447709526,537,21.3274503648489,0.807
511,5.096116026162594,1020,1019.9886437515646,540,22.951668696935023,0.808
508,5.096319294896132,1020,1019.9886427631176,542,24.556462702456113,0.809
507,5.090323914184776,1020,1019.9886418056266,544,26.132963412422477,0.81
511,5.043379593598113,1020,1019.988640879107,546,27.674195323557836,0.811
511,5.086086813307519,1020,1019.988639983574,548,29.175653643541406,0.812
517,5.202781658484252,1020,1019.988639119042,550,30.63557419888358,0.813
517,5.2663088699004295,1020,1019.9886382855251,550,32.054857477712524,0.814
501,5.3371619060854885,1020,1019.9886374830375,550,33.4366493451538,0.815
499,5.430396177357285,1020,1019.9886367115927,550,34.78562530201232,0.816
505,5.477322866442317,1020,1019.988635971204,550,36.10706644794937,0.817
498,5.4130943197129255,1020,1019.988635261884,551,37.40584573562368,0.818
510,5.3108547632813226,1020,1019.9886345836447,551,38.68545686246337,0.819
517,5.252059091189214,1020,1019.9886339364974,552,39.94721359057005,0.82
516,5.237284017485674,1020,1019.988633320453,553,41.189726033499724,0.821
516,5.0944393769078395,1020,1019.9886327355224,556,42.408725455753945,0.822
516,4.970692697700053,1020,1019.9886321817161,558,43.59726427453196,0.823
523,4.968796983749921,1020,1019.988631659044,560,44.746269094242486,0.824
521,5.079151036279418,1020,1019.9886311675162,562,45.84537940923425,0.825
515,5.053892737824688,1020,1019.9886307071423,564,46.883969905281106,0.826
512,5.087611316609347,1020,1019.9886302779313,566,47.852233651094764,0.827
513,5.238055149130655,1020,1019.9886298798918,568,48.74219769699456,0.828
503,5.267432980013474,1020,1019.9886295130326,569,49.548551716456174,0.829
504,5.054553689554063,1020,1019.9886291773618,568,50.26919424094526,0.83
513,5.075008104080852,1020,1019.988628872887,568,50.90543805253283,0.831
519,5.2868686764785275,1020,1019.9886285996157,568,51.46186122598045,0.832
510,5.267031270777917,1020,1019.9886283575551,568,51.94583505868671,0.833
512,5.28903023792939,1020,1019.9886281467119,567,52.36679739116541,0.834
513,5.223104609476957,1020,1019.9886279670926,566,52.73536602156991,0.835
508,5.164592891550977,1020,1019.9886278187026,566,53.06240100091219,0.836
499,5.157154754551976,1020,1019.988627701547,566,53.358125364662456,0.837
501,5.170166701186467,1020,1019.9886276156298,567,53.631400185917684,0.838
498,5.158048786911127,1020,1019.9886275609546,568,53.88922312207047,0.839
503,5.1277188203742385,1020,1019.9886275375251,568,54.1364847143623,0.84
506,4.980796371177975,1020,1019.9886275453445,569,54.37597998004078,0.841
511,4.909333991773064,1020,1019.9886275844159,571,54.60863947417993,0.842
512,4.781619150114683,1020,1019.9886276547421,572,54.83391698322595,0.843
514,4.638916410501673,1020,1019.9886277563254,573,55.050252753873856,0.844
519,4.774137834760336,1020,1019.988627889168,574,55.25552484724398,0.845
510,4.749746211543341,1020,1019.9886280532722,573,55.44740940667373,0.846
512,4.697751240775662,1020,1019.9886282486403,573,55.623592886205635,0.847
515,4.776963991131594,1020,1019.988628475275,572,55.78181150924094,0.848
517,4.673429505484187,1020,1019.9886287331791,571,55.919728878044815,0.849
511,4.701740001359637,1020,1019.9886290223543,570,56.03469474173581,0.85
509,4.694499671257166,1020,1019.9886293428029,570,56.12345074698707,0.851
523,4.766462179517787,1020,1019.9886296945264,570,56.18185903897355,0.852
522,4.916566816581381,1020,1019.988630077526,570,56.20472616088072,0.853
512,4.952364576471195,1020,1019.9886304918026,569,56.18578012844167,0.854
502,4.922329157865937,1020,1019.9886309373568,570,56.11783666979728,0.855
501,5.053233408699534,1020,1019.988631414189,570,55.993164489640556,0.856
512,5.041087632531242,1020,1019.9886319222995,571,55.80403098310801,0.857
513,4.945415624863982,1020,1019.9886324616886,572,55.543381665555565,0.858
513,4.993670055334174,1020,1019.9886330323556,572,55.205582900029725,0.859
511,5.229313235547649,1020,1019.9886336342992,572,54.78714292776133,0.86
513,5.763982048604885,1020,1019.9886342675176,571,54.28732372149658,0.861
513,6.132923216616819,1020,1019.9886349320085,571,53.708565684291294,0.862
508,6.038089638256299,1020,1019.9886356277697,571,53.05666579182,0.863
508,5.926345204815525,1020,1019.9886363547993,570,52.34067390999605,0.864
516,5.880758153265538,1020,1019.9886371130946,568,51.57249980895425,0.865
521,5.9194311166913485,1020,1019.9886379026533,567,50.766254105253985,0.866
512,5.867431056022248,1020,1019.9886387234727,564,49.93737786965105,0.867
507,5.94300890779118,1020,1019.9886395755492,563,49.1016432731812,0.868
504,6.038960493554213,1020,1019.9886404588786,561,48.27412589620525,0.869
508,6.115102144468534,1020,1019.9886413734565,560,47.468254179871586,0.87
510,6.076585681238024,1020,1019.9886423192783,560,46.69503168090522,0.871
504,6.29400806426732,1020,1019.988643296338,559,45.96250499767362,0.872
512,6.587190246345295,1020,1019.9886443046292,559,45.27551861360509,0.873
526,6.757631718524361,1020,1019.9886453441453,559,44.635762693885916,0.874
522,6.75797331476103,1020,1019.9886464148793,560,44.042085826755354,0.875
520,6.75901376386221,1020,1019.988647516824,559,43.491015571950086,0.876
521,7.097059722268098,1020,1019.9886486499721,559,42.97740864349027,0.877
516,7.2831623687638105,1020,1019.9886498143159,560,42.49514177194604,0.878
516,7.4522783450931405,1020,1019.9886510098471,560,42.03775399353572,0.879
527,7.498966972950562,1020,1019.9886522365572,560,41.59896062970325,0.88
514,7.715791906768683,1020,1019.988653494437,559,41.172978766498346,0.881
510,7.9311157244262676,1020,1019.988654783477,557,40.75463379520785,0.882
514,8.07300948802466,1020,1019.9886561036682,555,40.33925380727102,0.883
500,8.1961316117911,1020,1019.9886574550013,554,39.922396678580334,0.884
480,8.266421612140201,1020,1019.9886588374669,553,39.49948506658642,0.885
490,8.322024276190223,1020,1019.988660251055,551,39.06544075721993,0.886
505,8.45959904524368,1020,1019.988661695755,551,38.61440963935217,0.887
516,8.588585247604987,1020,1019.9886631715557,551,38.13965336814961,0.888
520,8.831148368072878,1020,1019.9886646784456,551,37.63365645360463,0.889
521,8.985986730620338,1020,1019.988666216413,551,37.08846246967071,0.89
512,9.104613308263724,1020,1019.988667785445,551,36.49621620074553,0.891
507,8.946380049298005,1020,1019.9886693855291,552,35.84985546291794,0.892
504,9.01079261349313,1020,1019.9886710166519,552,35.14387096220811,0.893
504,9.024769544315275,1020,1019.9886726788008,551,34.3750376188263,0.894
516,8.993109610997804,1020,1019.988674371962,551,33.543018431559034,0.895
523,9.02533356535125,1020,1019.9886760961216,551,32.65075263365341,0.896
525,9.15866148296848,1020,1019.9886778512649,550,31.704561878018083,0.897
525,9.171048372716884,1020,1019.9886796373775,547,30.713939204373958,0.898
515,9.349585612453293,1020,1019.9886814544446,546,29.69102348116629,0.899
512,9.218401068537801,1020,1019.9886833024515,543,28.649802989439856,0.9
490,9.089312461401102,1020,1019.9886851813825,540,27.605129126881362,0.901
491,9.134038972002243,1020,1019.9886870912222,539,26.571647579212613,0.902
491,8.94759390474937,1020,1019.9886890319543,538,25.562764461391215,0.903
509,8.899754264146171,1020,1019.9886910035624,537,24.58975696361008,0.904
531,8.851744283746806,1020,1019.9886930060296,536,23.661114338228597,0.905
533,8.584035572302712,1020,1019.9886950393387,536,22.782161433850263,0.906
518,8.624892900189428,1020,1019.988697103472,536,21.954979505615864,0.907
504,8.633216527102856,1020,1019.9886991984112,537,21.17860230646242,0.908
507,8.629012920176217,1020,1019.9887013241381,536,20.449433672860472,0.909
515,8.412444719824768,1020,1019.9887034806342,536,19.76181044131659,0.91
519,7.822516712639229,1020,1019.9887056678807,536,19.108624726414543,0.911
504,7.572194593561928,1020,1019.9887078858586,536,18.481922515387257,0.912
495,7.723326269437358,1020,1019.9887101345488,535,17.873409261945422,0.913
499,7.75314933768174,1020,1019.9887124139317,533,17.274815717451588,0.914
502,7.568760014185946,1020,1019.9887147239878,532,16.67810639483533,0.915
511,7.429834135693665,1020,1019.9887170646965,531,16.075544555605944,0.916
515,7.422983886991559,1020,1019.9887194360375,528,15.459655466632942,0.917
518,7.410448706384296,1020,1019.9887218379903,527,14.823148702984671,0.918
518,7.343368954102743,1020,1019.9887242705339,527,14.158867220533459,0.919
518,7.341183932817128,1020,1019.988726733647,526,13.459824129977289,0.92
520,7.437459618706254,1020,1019.9887292273073,526,12.719368516545755,0.921
521,7.437833766217319,1020,1019.9887317514921,526,11.93149385826897,0.922
520,7.228231488582676,1020,1019.9887343061786,525,11.091272931659516,0.923
518,7.193049592349858,1020,1019.9887368913431,525,10.1953766545188,0.924
507,7.258614174919981,1020,1019.9887395069617,526,9.242614047208239,0.925
502,7.291889540919613,1020,1019.9887421530101,525,8.234418156837481,0.926
511,7.147764011991184,1020,1019.9887448294638,524,7.17520033713143,0.927
512,6.88405192915583,1020,1019.9887475362979,523,6.072504761954155,0.928
513,6.6012965337298075,1020,1019.9887502734863,521,4.936916409979683,0.929
512,6.740264372530609,1020,1019.9887530410023,519,3.7817054299420234,0.93
505,6.3348883904788655,1020,1019.988755838819,518,2.622223223112987,0.931
508,6.216347287207772,1020,1019.9887586669091,516,1.4750955448765388,0.932
507,6.281508931494972,1020,1019.988761525245,513,0.3572818329615203,0.933
512,6.317294370200888,1020,1019.9887644137983,512,-0.7149141761347799,0.934
509,6.319431128709649,1020,1019.988767332541,511,-1.726791253623006,0.935
501,6.288461085999746,1020,1019.9887702814448,510,-2.6660685347093525,0.936
497,6.292536499638786,1020,1019.9887732604815,509,-3.52350374724583,0.937
504,6.265694276882132,1020,1019.9887762696225,509,-4.293264364246606,0.938
510,5.981947419159381,1020,1019.9887793088391,508,-4.9730307962431715,0.939
507,5.844355930838501,1020,1019.9887823781017,508,-5.563837534051841,0.94
509,5.781321294223968,1020,1019.9887854773809,508,-6.0696832001113075,0.941
506,5.956694604846588,1020,1019.9887886066466,509,-6.496962238449582,0.942
513,6.041528651884826,1020,1019.9887917658679,509,-6.853787763772062,0.943
517,5.956113122306328,1020,1019.9887949550138,509,-7.149284452330707,0.944
521,5.827143616692283,1020,1019.9887981740534,509,-7.392929721262489,0.945
521,5.87294710766663,1020,1019.9888014229563,508,-7.594009972911042,0.946
515,5.960903442417588,1020,1019.988804701691,508,-7.761238308754585,0.947
521,6.044040379700888,1020,1019.9888080102263,508,-7.902554638134231,0.948
519,6.077306787078868,1020,1019.9888113485302,506,-8.025102387337554,0.949
508,6.118262887170802,1020,1019.9888147165706,506,-8.135350916952182,0.95
498,6.096547281487583,1020,1019.9888181143145,504,-8.23931165253154,0.951
502,5.916452587085176,1020,1019.9888215417294,504,-8.342781816638723,0.952
515,5.935627021884952,1020,1019.9888249987824,503,-8.45154576841939,0.953
520,6.025455468575425,1020,1019.9888284854404,504,-8.57147210629383,0.954
510,6.0260074563001425,1020,1019.9888320016693,504,-8.708463978179147,0.955
495,6.07172389289553,1020,1019.988835547434,504,-8.8682468423442,0.956
500,5.968128193068342,1020,1019.9888391226995,505,-9.05600700121066,0.957
502,5.92632299878089,1020,1019.9888427274303,505,-9.27592072816823,0.958
506,5.916993062592644,1020,1019.9888463615906,506,-9.530634433230594,0.959
514,5.935862781979726,1020,1019.9888500251435,506,-9.82076890442492,0.96
518,6.160252616890761,1020,1019.9888537180522,505,-10.144523561751923,0.961
518,6.306336335792019,1020,1019.9888574402793,506,-10.497449272692938,0.962
508,6.323270641156128,1020,1019.9888611917876,505,-10.872441853709296,0.963
518,6.446399226263387,1020,1019.9888649725398,504,-11.259985455068575,0.964
517,6.44976936992174,1020,1019.9888687824981,504,-11.648648084045492,0.965
522,6.876509663302886,1020,1019.9888726216244,503,-12.025802791562862,0.966
519,7.469351256359797,1020,1019.9888764898795,501,-12.378519988547932,0.967
515,7.5393827349176235,1020,1019.9888803872244,499,-12.694551619822144,0.968
512,7.490108246613503,1020,1019.9888843136199,498,-12.963309822570183,0.969
504,7.360693621211823,1020,1019.988888269026,498,-13.176735916936483,0.97
499,7.342644285648164,1020,1019.9888922534018,498,-13.329964266644733,0.971
499,7.333995232833557,1020,1019.9888962667059,499,-13.421709651951579,0.972
502,7.564379502648653,1020,1019.9889003088969,499,-13.454341094953218,0.973
504,7.693113637572509,1020,1019.9889043799334,499,-13.433642110059749,0.974
510,7.694529766850167,1020,1019.9889084797741,500,-13.36829117771966,0.975
513,7.700976065714557,1020,1019.9889126083771,502,-13.269124058771137,0.976
514,7.705721008040782,1020,1019.9889167656996,502,-13.148260344997661,0.977
518,7.916461511028242,1020,1019.988920951699,503,-13.018188546023442,0.978
515,8.06099198093809,1020,1019.9889251663316,503,-12.890904267432681,0.979
516,7.992090817021421,1020,1019.9889294095541,503,-12.777183544038413,0.98
512,8.682457746918798,1020,1019.9889336813229,502,-12.68605031036488,0.981
512,9.240874238505288,1020,1019.988937981594,502,-12.624467648679873,0.982
514,9.634091501382198,1020,1019.9889423103231,502,-12.597251756876798,0.983
515,9.605526729210117,1020,1019.9889466674662,500,-12.60717981322318,0.984
523,9.529282492198009,1020,1019.9889510529791,499,-12.65524093307623,0.985
529,9.521284669715952,1020,1019.9889554668174,499,-12.740965280958214,0.986
524,9.422120234194697,1020,1019.988959908936,499,-12.8627625915688,0.987
524,9.396987159349392,1020,1019.9889643792893,499,-13.018209465855492,0.988
509,9.446538774579446,1020,1019.9889688778325,499,-13.204243009731703,0.989
487,9.41395096304424,1020,1019.9889734045199,499,-13.417241849461943,0.99
478,9.384236280424384,1020,1019.9889779593053,500,-13.652999569453822,0.991
503,9.234782995694312,1020,1019.9889825421423,500,-13.906617126671959,0.992
508,9.180940333709433,1020,1019.9889871529844,501,-14.172357457659269,0.993
510,9.267711114543914,1020,1019.9889917917848,500,-14.443514757655967,0.994
518,9.305984409607952,1020,1019.9889964584962,500,-14.712350804452193,0.995
519,9.153414616859443,1020,1019.9890011530714,500,-14.970141317954837,0.996
524,8.96379557760842,1020,1019.9890058754621,500,-15.207359040738957,0.997
525,8.824886656607964,1020,1019.9890106256206,499,-15.413999900532819,0.998
516,8.666931889718295,1020,1019.9890154034991,497,-15.580036205039896,0.999
509,8.54739390025428,1020,1019.989020209049,496,-15.69595827914723,1.0
519,8.56551143319319,1020,1019.9890250422212,496,-15.75334737233163,1.001
525,8.70359891942272,1020,1019.9890299029661,496,-15.74541353603437,1.002
518,8.684265686323476,1020,1019.9890347912336,496,-15.667435556935173,1.003
500,8.646702677623912,1020,1019.9890397069734,497,-15.517054126416793,1.004
471,8.669357792407515,1020,1019.9890446501348,497,-15.294389310521272,1.005
463,8.690763464561446,1020,1019.9890496206671,497,-15.001974316621247,1.006
476,8.771390035585354,1020,1019.9890546185187,498,-14.644516668067961,1.007
499,8.786715098868118,1020,1019.9890596436384,499,-14.228514310483023,1.008
506,8.739523982105156,1020,1019.9890646959742,499,-13.76176800963143,1.009
505,8.7389250371467,1020,1019.9890697754744,501,-13.252842299982595,1.01
510,8.671691194008483,1020,1019.9890748820866,502,-12.710533918060452,1.011
512,8.586122969807768,1020,1019.9890800157576,503,-12.143407519506553,1.012
513,8.484731469001407,1020,1019.9890851764343,503,-11.559451932640716,1.013
512,8.37333264665654,1020,1019.9890903640634,504,-10.965895213161307,1.014
514,8.489809395852294,1020,1019.9890955785912,504,-10.369194281717409,1.015
511,8.087522869965307,1020,1019.9891008199642,503,-9.77518810431289,1.016
505,7.555905470274714,1020,1019.9891060881286,502,-9.189376335643049,1.017
504,7.582262194257327,1020,1019.9891113830307,503,-8.617262746232814,1.018
509,7.804468845723256,1020,1019.9891167046165,503,-8.064689713856762,1.019
513,7.98272120589005,1020,1019.9891220528315,503,-7.538090021815912,1.02
516,7.813651547897745,1020,1019.9891274276205,503,-7.044594637568814,1.021
520,7.636055729303838,1020,1019.9891328289281,504,-6.591956826604028,1.022
516,7.317913540391026,1020,1019.9891382566988,506,-6.18828098998023,1.023
512,6.965395787450733,1020,1019.9891437108766,507,-5.841576432580696,1.024
518,6.853953991783004,1020,1019.9891491914049,508,-5.559187418268856,1.025
523,6.872668532562881,1020,1019.9891546982266,510,-5.347175085475823,1.026
515,6.689230944855549,1020,1019.9891602312845,510,-5.209738802685246,1.027
520,6.486403600808369,1020,1019.9891657905208,510,-5.148761893639714,1.028
520,6.368163030090935,1020,1019.9891713758778,509,-5.163549656904903,1.029
513,6.347966923998908,1020,1019.9891769872978,508,-5.250799363324961,1.03
513,5.67332274163835,1020,1019.9891826247225,508,-5.404808442363251,1.031
516,4.82934448166217,1020,1019.9891882880937,507,-5.617895314358489,1.032
518,4.2382670176079005,1020,1019.9891939773523,507,-5.880982072086431,1.033
520,4.352994041262831,1020,1019.9891996924383,505,-6.184270733379611,1.034
527,4.517820263497253,1020,1019.9892054332921,504,-6.517934387362831,1.035
530,4.482889506992961,1020,1019.9892111998537,503,-6.872741258209643,1.036
527,4.468810382653743,1020,1019.9892169920626,502,-7.240535312382368,1.037
524,4.406946082812693,1020,1019.9892228098582,502,-7.614513654624799,1.038
524,4.426890369891719,1020,1019.9892286531798,504,-7.989268671443783,1.039
521,4.380684545240293,1020,1019.9892345219663,504,-8.36059831175619,1.04
513,4.413539886362969,1020,1019.9892404161568,504,-8.72512422021955,1.041
508,4.452135024157273,1020,1019.9892463356895,504,-9.079786584867481,1.042
505,4.450991377267888,1020,1019.989252280502,504,-9.421301335084177,1.043
506,4.345669000559883,1020,1019.9892582505321,505,-9.74566960458917,1.044
514,4.360472240866888,1020,1019.989264245717,505,-10.04782362957045,1.045
513,4.5626789655286935,1020,1019.9892702659935,505,-10.321478783491157,1.046
514,4.761767829532714,1020,1019.9892763112979,504,-10.559237791471746,1.047
514,4.730737730088417,1020,1019.9892823815661,503,-10.752960502001157,1.048
517,4.781777206153932,1020,1019.9892884767336,501,-10.894373993958729,1.049
516,4.909084107431161,1020,1019.9892945967352,499,-10.975859335763431,1.05
516,5.060693067945736,1020,1019.9893007415061,499,-10.991320575579913,1.051
520,4.980105792870927,1020,1019.9893069109806,499,-10.937025415199786,1.052
506,4.991707518377638,1020,1019.989313105093,499,-10.812308899668228,1.053
505,4.973903317393143,1020,1019.9893193237766,499,-10.620049391291493,1.054
510,4.93102434184432,1020,1019.9893255669648,500,-10.366854370879238,1.055
508,4.88404558656726,1020,1019.9893318345906,500,-10.062926541967837,1.056
510,4.8366289065117956,1020,1019.9893381265869,501,-9.721614651943966,1.057
495,4.878667597966874,1020,1019.9893444428861,503,-9.3586860301127,1.058
501,4.953112529205006,1020,1019.9893507834207,504,-8.99138674807672,1.059
508,4.952758573970777,1020,1019.9893571481228,504,-8.637377493807909,1.06
511,4.845948458247486,1020,1019.9893635369248,506,-8.313645355031449,1.061
509,4.783868262492103,1020,1019.9893699497583,506,-8.035491847821405,1.062
514,4.649092199136583,1020,1019.9893763865551,507,-7.815686229629784,1.063
509,4.622126769597249,1020,1019.9893828472467,506,-7.663851981596229,1.064
501,4.5454800682854515,1020,1019.9893893317638,505,-7.586125084667353,1.065
504,4.4783096361586985,1020,1019.9893958400374,504,-7.585088573343051,1.066
502,4.430985810619001,1020,1019.9894023719979,503,-7.65995448133753,1.067
509,4.3027762456626215,1020,1019.9894089275753,503,-7.806938198595258,1.068
510,4.233062540417923,1020,1019.9894155066999,502,-8.019755872164502,1.069
519,4.2613680533348015,1020,1019.9894221093022,502,-8.290173490088272,1.07
521,4.25198096083674,1020,1019.9894287353121,502,-8.608544372684461,1.071
513,4.264263191377589,1020,1019.9894353846597,502,-8.964286517939232,1.072
513,4.299404359785497,1020,1019.9894420572745,501,-9.346269152561922,1.073
499,4.3254865632095125,1020,1019.9894487530859,501,-9.743095920823263,1.074
497,4.444953778206362,1020,1019.989455472023,501,-10.143288643373221,1.075
505,4.501259374703319,1020,1019.9894622140154,501,-10.535390252549988,1.076
508,4.4929098345791445,1020,1019.989468978992,501,-10.908018288207717,1.077
511,4.338577885033145,1020,1019.9894757668816,502,-11.249909979848853,1.078
508,4.239762576012125,1020,1019.9894825776122,502,-11.55000428436977,1.079
507,4.182054763440755,1020,1019.9894894111115,502,-11.797603042307456,1.08
512,4.295579383702889,1020,1019.9894962673069,501,-11.982640975939352,1.081
513,4.4246099208108305,1020,1019.9895031461255,500,-12.096072704250696,1.082
515,4.44136762998576,1020,1019.9895100474936,499,-12.130357508852992,1.083
512,4.270229448779685,1020,1019.9895169713376,498,-12.079995122342602,1.084
508,4.232503284559466,1020,1019.9895239175838,497,-11.942044694600616,1.085
501,4.349578066716505,1020,1019.9895308861581,497,-11.716549139908048,1.086
510,4.358958374466078,1020,1019.9895378769864,497,-11.40679072853207,1.087
516,4.394394417399195,1020,1019.9895448899941,498,-11.019321039692386,1.088
515,4.339221760187445,1020,1019.9895519251062,500,-10.563736651100834,1.089
512,4.3582315822634365,1020,1019.9895589822471,501,-10.052206140633992,1.09
511,4.25845156503555,1020,1019.9895660613414,501,-9.498787444936433,1.091
510,4.230898055292554,1020,1019.9895731623131,503,-8.918601238822959,1.092
521,4.2547942981075355,1020,1019.9895802850859,504,-8.326942777782795,1.093
524,4.235130005109668,1020,1019.9895874295834,506,-7.738421821919395,1.094
514,4.184148186098461,1020,1019.9895945957286,507,-7.166218342297177,1.095
511,4.0193842116787195,1020,1019.9896017834452,507,-6.621529468993735,1.096
515,3.7707269917090795,1020,1019.9896089926568,506,-6.113259307453624,1.097
513,3.6889486757685903,1020,1019.9896162232866,507,-5.647969645989514,1.098
503,3.6671696966582568,1020,1019.9896234752576,506,-5.230071878491151,1.099
509,3.6079298969351696,1020,1019.9896307484931,504,-4.862205617201183,1.1
515,3.387074654907544,1020,1019.9896380429167,504,-4.545722858634767,1.101
516,3.4429691562490055,1020,1019.9896453584523,504,-4.281182137713017,1.102
511,3.517411363607749,1020,1019.9896526950237,504,-4.068758074000119,1.103
518,3.548733722633607,1020,1019.9896600525539,504,-3.908488689154429,1.104
519,3.517773433390963,1020,1019.989667430966,505,-3.8003124127737626,1.105
523,3.619058299237592,1020,1019.9896748301829,506,-3.7438832663970367,1.106
511,3.675114684122749,1020,1019.9896822501277,507,-3.7381909786876193,1.107
510,3.7410518749790937,1020,1019.9896896907229,508,-3.7810475591376753,1.108
506,3.780249586837269,1020,1019.9896971518914,508,-3.868527988603575,1.109
508,3.7974018004741117,1020,1019.9897046335553,509,-3.9944663717008733,1.11
511,3.9131372946959906,1020,1019.9897121356365,509,-4.150108898563786,1.111
510,3.9339119971353678,1020,1019.9897196580558,510,-4.324012159775255,1.112
511,3.8953930290302816,1020,1019.9897272007337,510,-4.5022511820568,1.113
510,3.8615963253561345,1020,1019.98973476359,508,-4.668967019127054,1.114
513,3.855106836861478,1020,1019.989742346544,506,-4.807240406242292,1.115
514,3.929712493679125,1020,1019.989749949514,504,-4.9002304688919205,1.116
521,3.9142259713718146,1020,1019.9897575724189,504,-4.9324745200864255,1.117
511,4.008940147591437,1020,1019.9897652151766,504,-4.891216358373001,1.118
515,3.873534620390873,1020,1019.9897728777054,502,-4.767621422224657,1.119
514,3.65202478552721,1020,1019.9897805599229,502,-4.557746329758585,1.12
513,3.7962988137376397,1020,1019.9897882617469,502,-4.263153686723277,1.121
512,3.78279078431206,1020,1019.989795983095,503,-3.8910982580703686,1.122
518,3.809478166418467,1020,1019.9898037238844,505,-3.4542564468570687,1.123
517,3.8408117539071163,1020,1019.989811484032,507,-2.9700237508080183,1.124
513,3.6579984647283603,1020,1019.989819263454,510,-2.4594569528454993,1.125
505,3.782164648070553,1020,1019.9898270620669,511,-1.9459799279469756,1.126
508,4.184136264393164,1020,1019.9898348797864,512,-1.4539958492810643,1.127
507,4.534664747700374,1020,1019.9898427165289,513,-1.007549721485016,1.128
512,4.540686406630316,1020,1019.9898505722102,513,-0.6291643222159233,1.129
518,4.6469712403157795,1020,1019.9898584467463,512,-0.33893487650224124,1.13
516,4.614711548711678,1020,1019.9898663400526,511,-0.15392001314515022,1.131
504,4.515999377826411,1020,1019.9898742520439,509,-0.08781618846416533,1.132
505,4.549720024915277,1020,1019.9898821826349,508,-0.15085781030767964,1.133
514,4.461467161514684,1020,1019.9898901317391,506,-0.34985348696180696,1.134
520,4.435824413869228,1020,1019.9898980992692,505,-0.68825580287699,1.135
521,4.441816042978476,1020,1019.9899060851375,504,-1.1661702350824372,1.136
510,4.640387506184114,1020,1019.9899140892556,505,-1.7802375621083473,1.137
507,4.615864328246109,1020,1019.9899221115355,507,-2.523369452764674,1.138
508,4.7063500598527535,1020,1019.9899301518884,508,-3.384370845041791,1.139
506,4.74759349543131,1020,1019.9899382102257,508,-4.347533128465766,1.14
511,4.729216396564415,1020,1019.9899462864581,508,-5.392316116206768,1.141
517,4.726895070536403,1020,1019.9899543804967,507,-6.493246152187588,1.142
511,4.611919998199806,1020,1019.9899624922517,506,-7.6201419116564955,1.143
510,4.608642146877856,1020,1019.9899706216332,504,-8.738743660305042,1.144
518,4.629125351978952,1020,1019.9899787685507,502,-9.811773092367117,1.145
512,4.66556120929956,1020,1019.9899869329132,500,-10.800396693161694,1.146
506,4.726798640893664,1020,1019.9899951146298,498,-11.666012961784237,1.147
513,4.7428659612111215,1020,1019.9900033136095,496,-12.372239080217156,1.148
510,4.723911525748654,1020,1019.9900115297613,494,-12.886940459394493,1.149
498,4.6438010113496615,1020,1019.9900197629944,492,-13.184130191814141,1.15
487,4.7157116495456535,1020,1019.9900280132177,492,-13.245567060314318,1.151
492,4.67032116929574,1020,1019.9900362803409,492,-13.061901834128,1.152
509,4.621259779024642,1020,1019.9900445642733,494,-12.633261381058505,1.153
518,4.590716423917727,1020,1019.990052864924,495,-11.969214100626171,1.154
516,4.664484355715605,1020,1019.9900611822017,497,-11.088120335312938,1.155
513,4.532156746380341,1020,1019.9900695160144,499,-10.015928958188196,1.156
508,4.471785528311247,1020,1019.9900778662703,501,-8.784529602445156,1.157
510,4.367561473472287,1020,1019.9900862328781,504,-7.429805358248874,1.158
517,4.283363785251607,1020,1019.9900946157462,506,-5.989551512897939,1.159
517,4.278388280486924,1020,1019.9901030147838,508,-4.501430953597026,1.16
524,4.251693972563813,1020,1019.9901114298995,510,-3.0011255572319433,1.161
513,4.124678342082606,1020,1019.9901198610017,511,-1.5208159782230075,1.162
504,4.226392540246579,1020,1019.9901283079984,511,-0.08808245390150721,1.163
507,4.315257961944393,1020,1019.9901367707965,512,1.2747287390223632,1.164
511,4.3233880099452415,1020,1019.990145249303,512,2.5506785096211164,1.165
514,4.414991664853256,1020,1019.9901537434247,512,3.7279984422589276,1.166
511,4.599917145717594,1020,1019.9901622530682,513,4.7995302831399975,1.167
512,4.600391094104511,1020,1019.9901707781404,513,5.761949269259264,1.168
513,4.643703740636611,1020,1019.9901793185476,513,6.61488755533919,1.169
517,4.735226875004816,1020,1019.9901878741961,514,7.360069595543876,1.17
516,4.6599189522160795,1020,1019.9901964449922,515,8.000555747441448,1.171
514,4.753863335681365,1020,1019.9902050308423,515,8.540165628805797,1.172
515,4.796040827611592,1020,1019.9902136316522,516,8.983121811085978,1.173
514,4.7890777471900465,1020,1019.9902222473273,518,9.333920882230359,1.174
508,4.8051869576576,1020,1019.9902308777731,519,9.59740616409432,1.175
508,4.571841112311223,1020,1019.9902395228945,519,9.778988011120388,1.176
514,4.185795726322537,1020,1019.990248182596,520,9.88493778848056,1.177
509,3.9511289604794673,1020,1019.9902568567821,521,9.922673177143242,1.178
508,3.9931214701213107,1020,1019.9902655453569,521,9.900955386154768,1.179
511,3.8832250876569026,1020,1019.9902742482249,521,9.829931846706012,1.18
510,3.9202720815355345,1020,1019.9902829652905,520,9.720980063150822,1.181
513,4.028025287015133,1020,1019.9902916964583,520,9.586337908626378,1.182
513,4.026375048958052,1020,1019.9903004416327,519,9.438539246225542,1.183
514,4.036942353117605,1020,1019.9903092007179,516,9.289706745953277,1.184
519,3.9464827074369944,1020,1019.9903179736178,515,9.150781640792724,1.185
515,3.92672214493694,1020,1019.9903267602366,515,9.03078791453975,1.186
516,3.779959732601093,1020,1019.9903355604787,515,8.936230799906422,1.187
519,3.7734944338941845,1020,1019.990344374249,515,8.870714395845201,1.188
508,3.6802804907743383,1020,1019.9903532014526,515,8.83483435273293,1.189
502,3.609399821045879,1020,1019.9903620419949,516,8.826365886884794,1.19
500,3.6569869269297364,1020,1019.9903708957817,516,8.840730731214935,1.191
504,3.6523661148197455,1020,1019.9903797627188,518,8.871692592631156,1.192
507,3.6828653831915967,1020,1019.9903886427127,518,8.91220212368406,1.193
506,3.798226293278511,1020,1019.9903975356696,519,8.955292407982798,1.194
506,3.851826378598011,1020,1019.9904064414953,521,8.994917300590707,1.195
504,3.7965980880010344,1020,1019.9904153600954,521,9.026629465611178,1.196
505,3.7710725002818,1020,1019.9904242913752,520,9.048013555332494,1.197
508,3.8378718009120516,1020,1019.9904332352397,519,9.05882245331653,1.198
510,3.77338866742513,1020,1019.9904421915938,518,9.060807462521154,1.199
511,3.843540087136396,1020,1019.990451160343,516,9.05727913966248,1.2
515,3.967021726397534,1020,1019.9904601413926,515,9.052474914786078,1.201
517,4.01733579017976,1020,1019.9904691346477,515,9.050835426283555,1.202
515,4.032918597853561,1020,1019.9904781400136,514,9.056299846040867,1.203
513,3.9834632831951757,1020,1019.9904871573957,514,9.071721209371326,1.204
519,4.013403758074731,1020,1019.990496186699,515,9.098478904360153,1.205
519,4.187545105607905,1020,1019.9905052278285,516,9.136331694758967,1.206
515,4.287738277470322,1020,1019.9905142806891,517,9.183516343199656,1.207
512,4.3120514106975145,1020,1019.9905233451863,517,9.237060271942473,1.208
511,4.278086504994045,1020,1019.9905324212253,518,9.293247687682248,1.209
506,4.2578686300947,1020,1019.9905415087113,519,9.348160580984926,1.21
507,4.143405707132715,1020,1019.9905506075487,519,9.39820933049536,1.211
510,4.071640900787129,1020,1019.990559717642,520,9.440571550617866,1.212
515,4.109761657640823,1020,1019.9905688388957,519,9.473471847731156,1.213
511,4.000606690911271,1020,1019.9905779712147,519,9.496258342634592,1.214
509,4.011238728735816,1020,1019.9905871145046,519,9.509261632806323,1.215
514,3.8633694309147146,1020,1019.9905962686706,519,9.513454530726925,1.216
514,3.6772368785900147,1020,1019.9906054336178,516,9.509962948245255,1.217
518,3.591120338341155,1020,1019.9906146092507,514,9.499507003217252,1.218
516,3.66285133296044,1020,1019.9906237954741,513,9.481872777295154,1.219
510,3.6973845111002417,1020,1019.9906329921931,513,9.455522234413092,1.22
515,3.6497534546236516,1020,1019.9906421993127,514,9.417435189804593,1.221
517,3.603951044422166,1020,1019.9906514167377,515,9.363242808233174,1.222
512,3.6568513306168247,1020,1019.9906606443732,516,9.287664631539467,1.223
506,3.749820611337314,1020,1019.990669882124,516,9.185211877873526,1.224
502,3.7349575595749873,1020,1019.9906791298953,517,9.051078126973891,1.225
505,3.7639821121530974,1020,1019.9906883875918,518,8.882109298696339,1.226
509,3.6911608048109716,1020,1019.9906976551196,519,8.677729078213646,1.227
511,3.762728191658242,1020,1019.9907069323843,519,8.440693780515927,1.228
517,3.8308833930325927,1020,1019.990716219292,519,8.177562954498,1.229
520,3.7852807589544883,1020,1019.990725515749,518,7.89879915417364,1.23
518,3.69513826161926,1020,1019.9907348216619,517,7.61844998873226,1.231
508,3.532549241678369,1020,1019.9907441369377,515,7.353412602788386,1.232
511,3.544503213405837,1020,1019.9907534614835,514,7.122328262771776,1.233
513,3.6453742331406858,1020,1019.9907627952069,513,6.9441957092147,1.234
513,3.7152346287952946,1020,1019.9907721380154,512,6.836820716226151,1.235
511,3.6499413988468543,1020,1019.9907814898164,511,6.815232927014888,1.236
503,3.5600194028951893,1020,1019.9907908505178,512,6.890199379379165,1.237
514,3.6647648153456145,1020,1019.9908002200272,512,7.066948893648941,1.238
513,3.6335574028895805,1020,1019.9908095982522,513,7.344195785736864,1.239
510,3.714204413978707,1020,1019.9908189851006,514,7.713519926416829,1.24
511,3.7867586324140006,1020,1019.9908283804801,515,8.159128443738211,1.241
509,3.788475357042581,1020,1019.9908377842979,516,8.657996865383696,1.242
503,3.7791827187789653,1020,1019.9908471964612,517,9.180367089050776,1.243
505,3.7409323590475516,1020,1019.9908566168773,517,9.690567621639302,1.244
508,3.8041740126763344,1020,1019.9908660454538,518,10.14811795308628,1.245
507,3.905001417723691,1020,1019.9908754820984,518,10.509082225263466,1.246
502,3.8642367913688536,1020,1019.9908849267193,518,10.72764517840163,1.247
504,3.766237440429429,1020,1019.9908943792246,516,10.757893328177465,1.248
511,3.8114455293882816,1020,1019.990903839523,515,10.555793879164243,1.249
513,3.732649983695602,1020,1019.9909133075233,514,10.081369152816663,1.25
511,3.7004892572785986,1020,1019.9909227831344,512,9.301060309889053,1.251
521,3.6734397336970415,1020,1019.9909322662651,511,8.190257132813976,1.252
518,3.71768495585457,1020,1019.9909417568246,510,6.735940088035986,1.253
511,3.7792385324496895,1020,1019.9909512547223,509,4.939339291045245,1.254
514,3.6928093818073924,1020,1019.9909607598687,509,2.818467004853799,1.255
511,3.5679930924498815,1020,1019.9909702721746,509,0.41033264446294293,1.256
515,3.4425726105818,1020,1019.9909797915515,509,-2.2273894800956713,1.257
517,3.4448483835869093,1020,1019.9909893179105,508,-5.015489740837531,1.258
516,3.574496370126204,1020,1019.9909988511635,507,-7.8533932267066335,1.259
509,3.7157325568101194,1020,1019.9910083912226,504,-10.620573685344205,1.26
512,3.6888684925975106,1020,1019.9910179380012,502,-13.179341991751325,1.261
518,3.829127715403665,1020,1019.9910274914122,499,-15.379038797359359,1.262
510,3.815101638121457,1020,1019.9910370513697,495,-17.061540743340135,1.263
516,3.9164688648895774,1020,1019.9910466177884,490,-18.06786082990741,1.264
518,4.0000584168509175,1020,1019.9910561905825,487,-18.24549853096551,1.265
513,4.064688683592076,1020,1019.9910657696668,486,-17.456088325348226,1.266
513,4.100979796168141,1020,1019.9910753549551,484,-15.582820715947475,1.267
507,4.0872652537839445,1020,1019.9910849463621,484,-12.537077218465534,1.268
504,3.991916373982726,1020,1019.9910945438022,486,-8.263733804949132,1.269
504,3.8982527235293114,1020,1019.9911041471909,489,-2.7446464075079633,1.27
510,3.991567049415652,1020,1019.9911137564444,494,4.000062829988107,1.271
511,3.9550673532602163,1020,1019.9911233714791,503,11.913150818103531,1.272
513,3.8249685967718245,1020,1019.9911329922119,515,20.903875391644316,1.273
510,3.7055008930225153,1020,1019.9911426185594,532,30.853924994146794,1.274
502,3.830956085693707,1020,1019.9911522504389,551,41.625266446138035,1.275
507,3.954891291173839,1020,1019.9911618877676,568,53.06932191653215,1.276
505,4.018352093466541,1020,1019.9911715304637,582,65.0367422014286,1.277
509,3.890080269183417,1020,1019.9911811784458,595,77.38698105195901,1.278
511,3.8961622245966754,1020,1019.9911908316329,609,89.99690243309848,1.279
515,4.02424001808447,1020,1019.9912004899442,620,102.76775600263959,1.28
510,4.057362696845851,1020,1019.9912101532994,630,115.63001098372432,1.281
509,4.187979365711542,1020,1019.9912198216183,640,128.5457199091936,1.282
504,4.388639751022981,1020,1019.9912294948211,654,141.50826990539176,1.283
503,4.377139040136665,1020,1019.9912391728284,668,154.53955268437116,1.284
512,4.379064761199007,1020,1019.9912488555609,681,167.6847358942751,1.285
519,4.458925940119281,1020,1019.9912585429396,694,181.0049506268923,1.286
518,4.450319353639398,1020,1019.9912682348862,701,194.56833221089482,1.287
519,4.37758026289138,1020,1019.991277931323,710,208.4399683241018,1.288
519,4.410050308485742,1020,1019.9912876321731,719,222.67141078138908,1.289
516,4.339411009235282,1020,1019.9912973373602,729,237.2904739864598,1.29
515,4.229515856508609,1020,1019.9913070468082,743,252.29205120968297,1.291
513,4.306588364821806,1020,1019.9913167604417,761,267.6306168877121,1.292
510,4.491201785545411,1020,1019.9913264781852,782,283.2149529241351,1.293
513,4.672600944064579,1020,1019.9913361999633,801,298.90546051982915,1.294
519,4.74529425675639,1020,1019.9913459257003,818,314.5142295825528,1.295
509,4.746324088961884,1020,1019.9913556553219,831,329.80786871367303,1.296
510,4.785974620704852,1020,1019.9913653887537,844,344.5129689385791,1.297
513,4.858018352801935,1020,1019.9913751259222,858,358.32398069987795,1.298
505,4.988955779090626,1020,1019.9913848667542,869,370.91320804433326,1.299
504,5.2557420346066275,1020,1019.9913946111768,882,381.9425478989239,1.3
508,5.421637838703952,1020,1019.9914043591178,895,391.0765177213404,1.301
516,5.503044618606854,1020,1019.9914141105054,906,397.9960256712551,1.302
518,5.431914363601886,1020,1019.9914238652681,913,402.41225717556284,1.303
519,5.4301196247273005,1020,1019.991433623335,915,404.07999852208,1.304
515,5.4999107122672815,1020,1019.9914433846355,915,402.8097069555883,1.305
506,5.545800349837728,1020,1019.9914531491003,915,398.4776719784658,1.306
497,5.5866018467690415,1020,1019.99146291666,908,391.033688569774,1.307
507,5.599948206163467,1020,1019.9914726872461,898,380.5057729672086,1.308
506,5.606251415732844,1020,1019.9914824607903,884,367.0015927122208,1.309
506,5.500760251197616,1020,1019.9914922372249,865,350.70645201791257,1.31
511,5.559275188459637,1020,1019.9915020164824,844,331.8778622487705,1.311
515,5.58213348277761,1020,1019.9915117984958,822,310.836920515717,1.312
514,5.646489911228019,1020,1019.9915215831986,796,287.9569011760929,1.313
510,5.585900436425128,1020,1019.9915313705244,768,263.6496230533341,1.314
510,5.509150030821512,1020,1019.9915411604068,739,238.35028173425974,1.315
517,5.502480845935724,1020,1019.9915509527789,709,212.50152516047166,1.316
522,5.458003896350206,1020,1019.9915607475734,680,186.53759422209342,1.317
524,5.531030491203907,1020,1019.9915705447222,652,160.86934039167625,1.318
522,5.560865432204853,1020,1019.9915803441575,628,135.87086568203836,1.319
518,5.652244963161532,1020,1019.991590145811,606,111.86840946149032,1.32
514,5.672871612802265,1020,1019.991599949614,585,89.1319435694683,1.321
507,5.6416079527115865,1020,1019.9916097554972,564,67.86975087746605,1.322
502,5.7218200329084,1020,1019.9916195633912,545,48.2260738487676,1.323
496,5.900853069324805,1020,1019.9916293732269,530,30.28174363176998,1.324
494,6.024141175864166,1020,1019.9916391849354,517,14.057542786471819,1.325
502,6.10856316250809,1020,1019.9916489984473,506,-0.48008165375867035,1.326
509,6.156832069980569,1020,1019.9916588136941,496,-13.41144754704664,1.327
514,6.176313723394881,1020,1019.9916686306067,487,-24.854774748387715,1.328
515,6.181758234488216,1020,1019.9916784491154,479,-34.95662207864012,1.329
516,6.205550723969277,1020,1019.9916882691507,468,-43.88219432203103,1.33
513,6.204371522427535,1020,1019.991698090643,458,-51.80602286021017,1.331
507,6.1299714889981995,1020,1019.9917079135223,449,-58.903423993885404,1.332
504,5.878187761703813,1020,1019.9917177377185,441,-65.34302451022589,1.333
507,5.772377230719984,1020,1019.9917275631612,434,-71.28053418729061,1.334
515,5.694769254530786,1020,1019.9917373897799,429,-76.85385344023828,1.335
519,5.599674925603333,1020,1019.9917472175036,424,-82.17953540963464,1.336
521,5.6091172247620245,1020,1019.9917570462615,418,-87.3505717577367,1.337
515,5.594124619258697,1020,1019.991766875982,412,-92.43543294909622,1.338
508,5.601390205888767,1020,1019.9917767065929,407,-97.47826077406371,1.339
506,5.68262576270906,1020,1019.9917865380223,400,-102.50008177627842,1.34
512,5.745981506355264,1020,1019.9917963701989,396,-107.50088732856494,1.341
516,5.719381710265054,1020,1019.9918062030508,391,-112.46241208371491,1.342
515,5.520679495562204,1020,1019.9918160365066,386,-117.35143798566243,1.343
517,5.387417279071949,1020,1019.991825870494,382,-122.12345373541113,1.344
519,5.271499607021006,1020,1019.9918357049407,377,-126.72650567183359,1.345
510,5.2161829468009255,1020,1019.9918455397744,372,-131.10508211579858,1.346
505,5.17985218702947,1020,1019.9918553749228,368,-135.20387809032982,1.347
501,5.130936445942419,1020,1019.9918652103127,363,-138.97129192640114,1.348
498,4.977779302907113,1020,1019.9918750458703,360,-142.36251197965902,1.349
499,4.732324725631399,1020,1019.9918848815225,355,-145.3420630841385,1.35
505,4.417674937564441,1020,1019.9918947171966,352,-147.88570042410228,1.351
516,4.299182199998027,1020,1019.9919045528193,349,-149.98156499319555,1.352
518,4.2893566779590255,1020,1019.9919143883169,349,-151.63055168270583,1.353
519,4.233163775823571,1020,1019.9919242236153,349,-152.84588893123848,1.354
515,4.160948973136371,1020,1019.99193405864,349,-153.6519844098911,1.355
514,4.1909742628207995,1020,1019.9919438933159,350,-154.08264653802348,1.356
512,4.189868816483909,1020,1019.9919537275684,351,-154.17883767405402,1.357
511,4.123065587117893,1020,1019.991963561323,352,-153.98614535751952,1.358
512,4.047929663742373,1020,1019.9919733945051,353,-153.5521704871543,1.359
512,4.028046871668119,1020,1019.9919832270396,353,-152.92402580718428,1.36
512,4.007604034749955,1020,1019.991993058851,355,-152.14611641980645,1.361
508,3.8614706419156146,1020,1019.9920028898644,355,-151.25833986403487,1.362
508,3.679521824938087,1020,1019.992012720005,356,-150.2948008474374,1.363
505,3.5890728176106306,1020,1019.9920225491985,356,-149.2830885528512,1.364
507,3.5935703638567023,1020,1019.9920323773702,357,-148.24411557926427,1.365
506,3.55940423558292,1020,1019.9920422044449,357,-147.19247027785875,1.366
512,3.6410278942409833,1020,1019.9920520303474,356,-146.1371918492186,1.367
517,3.581717550145011,1020,1019.992061855002,355,-145.08284320733398,1.368
516,3.524316863668905,1020,1019.9920716783338,355,-144.0307342257495,1.369
515,3.4113532078699924,1020,1019.9920815002677,356,-142.98014283358208,1.37
512,3.291484565533735,1020,1019.9920913207282,359,-141.92939760144142,1.371
512,3.477308306775777,1020,1019.9921011396398,360,-140.87672165160708,1.372
512,3.5149943442104217,1020,1019.9921109569266,363,-139.8207859204323,1.373
513,3.314045088552323,1020,1019.9921207725122,364,-138.76096872761323,1.374
510,3.245770515498407,1020,1019.9921305863202,366,-137.69735906027424,1.375
507,3.1986511518656218,1020,1019.9921403982737,367,-136.63056857192635,1.376
510,3.2160562436242737,1020,1019.9921502082959,369,-135.56143177942232,1.377
510,3.2676132082724414,1020,1019.9921600163104,370,-134.4906771505155,1.378
512,3.1272111269200216,1020,1019.9921698222408,372,-133.4186457930094,1.379
503,3.086811716854052,1020,1019.9921796260107,373,-132.3451205976574,1.38
509,3.1066379276395297,1020,1019.9921894275437,374,-131.2693075437297,1.381
510,3.136051794035217,1020,1019.992199226763,373,-130.18998319659534,1.382
508,3.1982409269992864,1020,1019.9922090235916,373,-129.10579052035573,1.383
507,3.197626896152378,1020,1019.9922188179523,373,-128.0156340892077,1.384
508,3.221067562669001,1020,1019.9922286097678,374,-126.91910275799205,1.385
511,3.3024926248269106,1020,1019.9922383989604,374,-125.81683878669784,1.386
510,3.612603300154898,1020,1019.9922481854517,376,-124.71077901403386,1.387
510,3.776663264824088,1020,1019.9922579691636,377,-123.60421351935103,1.388
514,3.7210739710328538,1020,1019.9922677500174,379,-122.50163586257277,1.389
513,3.7329122183834627,1020,1019.992277527934,381,-121.40839141545429,1.39
515,3.833432752961782,1020,1019.9922873028343,383,-120.33016134965295,1.391
513,3.960550486794401,1020,1019.9922970746386,384,-119.27234481318533,1.392
511,4.141715871541814,1020,1019.9923068432674,386,-118.23941719849637,1.393
510,4.049279666108862,1020,1019.9923166086412,387,-117.23434665352558,1.394
512,4.113734136821626,1020,1019.9923263706798,388,-116.25814468514423,1.395
521,4.253827072657135,1020,1019.9923361293033,389,-115.30961164974984,1.396
518,4.321511124445423,1020,1019.9923458844321,390,-114.38531626325968,1.397
511,4.34132764441876,1020,1019.9923556359865,390,-113.47982225683637,1.398
501,4.3819829928665035,1020,1019.9923653838875,391,-112.58614723531666,1.399
501,4.539378305948895,1020,1019.992375128056,390,-111.6964109735163,1.4
504,4.6409822742360625,1020,1019.9923848684132,390,-110.80260557939133,1.401
504,4.611162106240604,1020,1019.99239460488,390,-109.897401748746,1.402
511,4.670457658652346,1020,1019.9924043373774,391,-108.97489772632085,1.403
517,4.753247835064956,1020,1019.9924140658261,392,-108.03122337603543,1.404
516,4.755244615755043,1020,1019.9924237901471,393,-107.06493061313928,1.405
516,4.658079937829454,1020,1019.9924335102612,395,-106.07712964646167,1.406
515,4.674735254546764,1020,1019.9924432260893,396,-105.07136280145804,1.407
512,4.729156848766727,1020,1019.9924529375528,398,-104.05323936304978,1.408
509,4.6895325432026205,1020,1019.9924626445729,400,-103.0298821888285,1.409
507,4.638530085993923,1020,1019.9924723470706,401,-102.00925704544595,1.41
495,4.589535226745826,1020,1019.9924820449662,403,-100.99946671940693,1.411
502,4.605084938177662,1020,1019.9924917381802,404,-100.00809281277797,1.412
512,4.689243719603556,1020,1019.992501426633,405,-99.04165881614888,1.413
519,4.707531077297526,1020,1019.9925111102441,406,-98.10526980150856,1.414
521,4.7100937850854425,1020,1019.992520788933,406,-97.20245896479933,1.415
524,4.690975277523455,1020,1019.9925304626192,406,-96.33524203845676,1.416
522,4.72237794611069,1020,1019.9925401312223,406,-95.5043508667132,1.417
515,4.703093155585263,1020,1019.9925497946617,406,-94.70959146008225,1.418
504,4.7051080076515674,1020,1019.992559452857,405,-93.95025387111964,1.419
502,4.731815170670229,1020,1019.9925691057276,406,-93.2254945499067,1.42
508,4.816480838887616,1020,1019.9925787531927,407,-92.53461829927194,1.421
511,4.723022654667188,1020,1019.9925883951712,408,-91.87720645113455,1.422
516,4.630954720904562,1020,1019.9925980315827,409,-91.2530673736604,1.423
524,4.710161799356416,1020,1019.9926076623467,411,-90.66201920929186,1.424
519,4.549576987377969,1020,1019.9926172873832,413,-90.10354672283705,1.425
515,4.379053501853579,1020,1019.9926269066125,414,-89.57639920781658,1.426
509,4.277493534611841,1020,1019.9926365199556,415,-89.07821021150941,1.427
509,4.191850143764729,1020,1019.9926461273333,415,-88.60521929769905,1.428
514,4.216059253740655,1020,1019.9926557286669,415,-88.15216116555658,1.429
515,4.1428880551063,1020,1019.9926653238779,416,-87.71236186616662,1.43
510,4.142507769912065,1020,1019.9926749128874,415,-87.27805109292177,1.431
510,4.095151680797229,1020,1019.9926844956174,415,-86.84086832614344,1.432
514,4.0320321397103145,1020,1019.99269407199,414,-86.39251224154486,1.433
513,4.03152023005399,1020,1019.9927036419274,414,-85.92546017007373,1.434
513,4.028492105107465,1020,1019.992713205352,414,-85.43367087200735,1.435
515,4.044924811619154,1020,1019.9927227621858,414,-84.91318210750812,1.436
517,3.855855880282329,1020,1019.9927323123513,414,-84.36252496884923,1.437
512,3.691376651463241,1020,1019.9927418557711,415,-83.78289824003923,1.438
508,3.7062043193918255,1020,1019.9927513923678,417,-83.17807585728097,1.439
511,3.5896857459364107,1020,1019.9927609220642,419,-82.55405572842444,1.44
505,3.6178444995463774,1020,1019.9927704447834,420,-81.91849365335099,1.441
514,3.6012492043467135,1020,1019.9927799604482,421,-81.27999507410536,1.442
512,3.438080013396652,1020,1019.9927894689815,423,-80.64735423846136,1.443
510,3.45045797595628,1020,1019.9927989703067,423,-80.02883325102572,1.444
517,3.3246906964759844,1020,1019.9928084643468,424,-79.43156378472801,1.445
517,3.223434993521805,1020,1019.9928179510246,424,-78.86113437887857,1.446
514,3.1895172703959047,1020,1019.9928274302627,424,-78.32139917294757,1.447
515,3.1997535973790554,1020,1019.9928369019838,424,-77.814513341332,1.448
512,3.3106283551461133,1020,1019.9928463661106,424,-77.34117045797136,1.449
509,3.392328842133653,1020,1019.9928558225658,423,-76.90099103175679,1.45
512,3.503828222864692,1020,1019.9928652712722,422,-76.4929922286256,1.451
513,3.485708791309724,1020,1019.9928747121519,423,-76.11605879496821,1.452
512,3.515064876048939,1020,1019.9928841451267,423,-75.76933680724416,1.453
508,3.523979725878634,1020,1019.9928935701184,423,-75.45248594409865,1.454
505,3.5819807082089072,1020,1019.9929029870493,425,-75.16575018412007,1.455
508,3.6231853431666234,1020,1019.9929123958416,425,-74.90983645308903,1.456
511,3.580290616959589,1020,1019.9929217964175,426,-74.68562074014287,1.457
510,3.6446396795438893,1020,1019.9929311886992,427,-74.4937272387875,1.458
508,3.672555606405034,1020,1019.9929405726086,428,-74.33404494839489,1.459
504,3.7247873354449674,1020,1019.992949948067,428,-74.205256082915,1.46
503,3.732899599410245,1020,1019.9929593149957,428,-74.10445075037967,1.461
508,3.7356417020438086,1020,1019.992968673316,429,-74.02689285967034,1.462
511,3.79353596843,1020,1019.9929780229488,429,-73.96598472470444,1.463
511,3.8631809684590435,1020,1019.992987363815,428,-73.91345467609473,1.464
499,3.79750203149931,1020,1019.9929966958359,428,-73.85976489940778,1.465
501,3.9092064154568,1020,1019.9930060189329,427,-73.79470759491922,1.466
508,3.9302827074614095,1020,1019.9930153330267,426,-73.70812975061781,1.467
509,4.125643887615725,1020,1019.9930246380388,425,-73.59070456459662,1.468
512,4.269398386074386,1020,1019.9930339338905,423,-73.43465470284579,1.469
518,4.237471204180548,1020,1019.9930432205026,424,-73.2343325488342,1.47
513,4.151679261975676,1020,1019.9930524977956,425,-72.98657810689404,1.471
515,4.1513815516270745,1020,1019.9930617656898,426,-72.69080619701965,1.472
519,4.137520207030935,1020,1019.9930710241053,428,-72.3488159898123,1.473
527,4.224572221909062,1020,1019.9930802729621,430,-71.96435871352055,1.474
522,4.352413351838162,1020,1019.9930895121804,430,-71.54253420157968,1.475
512,4.39285949493732,1020,1019.9930987416808,431,-71.08910745238965,1.476
505,4.369768755325503,1020,1019.9931079613837,432,-70.60984044478981,1.477
508,4.378779023759048,1020,1019.9931171712094,432,-70.1099242096729,1.478
507,4.373878437239775,1020,1019.993126371078,432,-69.59357596645017,1.479
509,4.394010912352008,1020,1019.9931355609094,433,-69.06384016761734,1.48
512,4.380011525718275,1020,1019.9931447406236,433,-68.5226039259615,1.481
519,4.406610916405617,1020,1019.9931539101406,432,-67.97080931264938,1.482
514,4.454251993051433,1020,1019.9931630693802,432,-67.40881954729332,1.483
515,4.563247539922391,1020,1019.993172218263,432,-66.8368754627529,1.484
511,4.68157566030068,1020,1019.9931813567098,432,-66.25556606252886,1.485
514,4.563194560933881,1020,1019.9931904846414,432,-65.66623526218599,1.486
520,4.433627550243908,1020,1019.9931996019793,433,-65.07125647730757,1.487
516,4.399194148750684,1020,1019.9932087086452,434,-64.47412597514493,1.488
512,4.377609631530652,1020,1019.9932178045608,435,-63.87935210190706,1.489
504,4.418049901073306,1020,1019.993226889648,436,-63.29214688429753,1.49
505,4.216465674458802,1020,1019.9932359638285,437,-62.71795480870275,1.491
500,4.068160916941072,1020,1019.9932450270242,439,-62.16187730690923,1.492
504,4.102511913033346,1020,1019.9932540791567,441,-61.628068321732904,1.493
511,4.104996260558636,1020,1019.9932631201484,441,-61.11918407625871,1.494
510,4.078621520201971,1020,1019.993272149921,441,-60.63596618608684,1.495
506,4.0260857398080505,1020,1019.9932811683964,442,-60.177020423290365,1.496
509,4.070580416006472,1020,1019.9932901754962,442,-59.738826427820875,1.497
520,4.047898785614261,1020,1019.9932991711419,441,-59.31598173885635,1.498
519,3.953247857383628,1020,1019.9933081552547,441,-58.90165139366136,1.499
515,3.862505735055572,1020,1019.993317127756,440,-58.48816551495699,1.5
511,3.771982123646026,1020,1019.9933260885671,440,-58.06768548426953,1.501
508,3.799351044446964,1020,1019.9933350376093,439,-57.632848214092846,1.502
510,3.750225800308745,1020,1019.9933439748036,440,-57.177299984100465,1.503
514,3.7541768378471736,1020,1019.9933529000707,440,-56.696046626297374,1.504
516,3.7177586053178087,1020,1019.9933618133321,442,-56.18557395251794,1.505
514,3.8812364201758527,1020,1019.9933707145094,444,-55.64372743926433,1.506
515,4.163651928100504,1020,1019.9933796035245,445,-55.06937729871683,1.507
505,4.274762777790343,1020,1019.9933884802997,446,-54.46192698019038,1.508
504,4.240798135859736,1020,1019.9933973447567,447,-53.82074393158224,1.509
510,4.229324996019682,1020,1019.9934061968172,448,-53.14459891335484,1.51
512,4.238382802859527,1020,1019.9934150364036,449,-52.43119590492428,1.511
511,4.280950515076025,1020,1019.993423863438,450,-51.6768616019989,1.512
512,4.1348666293599585,1020,1019.9934326778423,451,-50.87644379331547,1.513
508,4.0525769545002515,1020,1019.9934414795387,451,-50.02344271633732,1.514
511,4.110638329082896,1020,1019.9934502684498,451,-49.110370086545174,1.515
513,4.0513511079567195,1020,1019.9934590444984,451,-48.129299332886134,1.516
515,3.987376272739092,1020,1019.9934678076077,451,-47.072541838976946,1.517
513,3.808760122289509,1020,1019.9934765577011,451,-45.93336276989661,1.518
512,3.708470593520783,1020,1019.9934852947019,452,-44.70664062088654,1.519
507,3.7058811376351373,1020,1019.9934940185333,453,-43.38937920512934,1.52
506,3.725144044319756,1020,1019.9935027291183,455,-41.980999266413974,1.521
509,3.7536557239377757,1020,1019.9935114263797,457,-40.48336666632486,1.522
515,3.775453686763526,1020,1019.9935201102401,460,-38.90055045164474,1.523
521,3.6625026306471917,1020,1019.9935287806227,462,-37.23834118073682,1.524
518,3.5610319076774424,1020,1019.9935374374502,464,-35.503591865038956,1.525
513,3.5213098127153533,1020,1019.9935460806448,467,-33.7034664229512,1.526
514,3.5322595696824326,1020,1019.9935547101284,470,-31.844691773549634,1.527
516,3.4919238762883342,1020,1019.9935633258231,472,-29.93290949273354,1.528
509,3.483534246948847,1020,1019.9935719276511,474,-27.972211169496504,1.529
499,3.488353593473676,1020,1019.9935805155353,475,-25.964918064969826,1.53
496,3.496009785502641,1020,1019.9935890893978,476,-23.911632312658273,1.531
499,3.4550248205638896,1020,1019.9935976491613,478,-21.811548831998035,1.532
512,3.4512098801952957,1020,1019.9936061947485,479,-19.662981039412625,1.533
513,3.415792510113559,1020,1019.9936147260817,480,-17.464024791988653,1.534
510,3.3671117505079438,1020,1019.993623243083,481,-15.213266786972715,1.535
515,3.4134373416994914,1020,1019.9936317456747,483,-12.910437514270475,1.536
512,3.417395584415686,1020,1019.9936402337792,486,-10.556916349943183,1.537
511,3.4939126182741926,1020,1019.993648707318,488,-8.15601783772021,1.538
515,3.5381337187096547,1020,1019.9936571662126,492,-5.7130208619654415,1.539
515,3.5053213893945627,1020,1019.9936656103848,495,-3.234940612894679,1.54
516,3.5035068047138385,1020,1019.9936740397563,499,-0.7300805642386681,1.541
513,3.456524702191177,1020,1019.9936824542485,502,1.7925675767415628,1.542
515,3.3943188758067957,1020,1019.9936908537832,505,4.323988332988367,1.543
511,3.3883388280986675,1020,1019.9936992382816,508,6.855777754987567,1.544
509,3.465792871195361,1020,1019.9937076076646,510,9.38066368891109,1.545
504,3.4955188097102172,1020,1019.9937159618532,513,11.892844245826087,1.546
508,3.4838941246287263,1020,1019.9937243007687,515,14.38810468809912,1.547
514,3.5515130399266988,1020,1019.9937326243328,516,16.86370423874345,1.548
514,3.558652833526127,1020,1019.9937409324677,518,19.318056518580498,1.549
513,3.3704275167709286,1020,1019.9937492250967,519,21.750256641383878,1.55
512,3.3660057900394023,1020,1019.9937575021429,521,24.15952998617783,1.551
513,3.455043104544263,1020,1019.9937657635289,523,26.54468835754503,1.552
512,3.5155897535781406,1020,1019.9937740091766,526,28.903676888511658,1.553
515,3.5013196725202493,1020,1019.9937822390077,527,31.233280742433983,1.554
516,3.5685124667926362,1020,1019.993790452945,530,33.52903762239512,1.555
513,3.3931369722816247,1020,1019.9937986509115,533,35.78537380398726,1.556
508,3.165137438674752,1020,1019.9938068328304,536,37.99595050497215,1.557
508,2.9409537899793934,1020,1019.9938149986249,539,40.15417659384609,1.558
506,2.979485481633323,1020,1019.9938231482186,543,42.25381703179768,1.559
509,3.007107103323829,1020,1019.993831281535,545,44.28960890784419,1.56
511,3.0409017409798373,1020,1019.9938393984983,547,46.257792369237926,1.561
507,3.0208821913126718,1020,1019.9938474990324,549,48.15647379682089,1.562
509,3.117743111062072,1020,1019.993855583062,551,49.985761685605446,1.563
511,3.230336386203347,1020,1019.993863650511,551,51.747647616693456,1.564
512,3.176012462085985,1020,1019.993871701304,552,53.4456404345301,1.565
512,3.0922941348260347,1020,1019.9938797353655,553,55.08419643888826,1.566
511,3.0748416635405893,1020,1019.9938877526195,554,56.668017060098414,1.567
514,3.051355246360461,1020,1019.993895752991,555,58.20130387979076,1.568
516,3.0546762049503378,1020,1019.993903736405,555,59.68706729782506,1.569
517,3.150838654921493,1020,1019.9939117027864,556,61.12658006618364,1.57
516,3.103052510520609,1020,1019.9939196520606,558,62.51905076099672,1.571
517,2.9667591283626,1020,1019.9939275841532,560,63.86156509851032,1.572
516,2.943865708181866,1020,1019.9939354989895,563,65.14930666280347,1.573
511,2.955541305531327,1020,1019.9939433964948,565,66.37602856287167,1.574
505,2.9699689038236357,1020,1019.9939512765948,567,67.53471167329678,1.575
505,3.0885782872039536,1020,1019.9939591392147,568,68.61832047062394,1.576
506,3.347694828389296,1020,1019.99396698428,570,69.62055751226485,1.577
507,3.3868160884914125,1020,1019.9939748117165,571,70.53652177985448,1.578
507,3.432156189655615,1020,1019.9939826214502,572,71.36319172647767,1.579
508,3.3861501125974676,1020,1019.9939904134069,572,72.09967825277181,1.58
516,3.3055466467140433,1020,1019.993998187513,572,72.74722369864013,1.581
512,3.362394665015781,1020,1019.9940059436951,571,73.30895713067207,1.582
515,3.440320907084359,1020,1019.9940136818807,571,73.78944902466685,1.583
515,3.4899100363805644,1020,1019.9940214019969,571,74.1941345008727,1.584
515,3.3846602306215523,1020,1019.9940291039709,571,74.5286893785713,1.585
515,3.406014705038106,1020,1019.9940367877305,570,74.7984460700536,1.586
517,3.4185477803204702,1020,1019.9940444532033,570,75.00792786171529,1.587
518,3.414186390078524,1020,1019.9940521003175,571,75.16056208628078,1.588
512,3.466491445111396,1020,1019.9940597290017,572,75.25860624318771,1.589
512,3.5418223994305356,1020,1019.9940673391845,573,75.3032886515626,1.59
508,3.654490778858678,1020,1019.994074930795,573,75.29513194479559,1.591
511,3.6957430063525174,1020,1019.9940825037618,574,75.23440004556967,1.592
508,3.7218792686216,1020,1019.9940900580139,575,75.12159148168433,1.593
507,3.8516672934684344,1020,1019.9940975934803,575,74.95789528794795,1.594
511,4.132492587716156,1020,1019.9941051100898,575,74.74553036261683,1.595
512,4.164402411917505,1020,1019.9941126077713,575,74.48790500236836,1.596
514,4.1031702865466615,1020,1019.9941200864544,574,74.18955940028376,1.597
515,4.0957869378355,1020,1019.9941275460685,572,73.8558872852868,1.598
515,4.116499032228941,1020,1019.9941349865437,570,73.49266913253926,1.599
504,4.184285968755864,1020,1019.9941424078104,569,73.10548247279584,1.6
498,4.182130182729326,1020,1019.994149809799,568,72.69907778282573,1.601
508,4.134925283554904,1020,1019.9941571924398,568,72.27681588657121,1.602
515,4.033113436946371,1020,1019.9941645556635,567,71.84025390610056,1.603
512,4.0209210840943665,1020,1019.9941718993998,567,71.38894522156592,1.604
511,3.9587232046837757,1020,1019.9941792235793,567,70.9204899356938,1.605
