EMG_raw,EMG_processed,EDA_raw,EDA_processed,ECG_raw,ECG_processed,time_sec
507,3.7502086831685593,1020,1019.9950547059115,523,5.4609721793919785,0.0
519,3.811320466452983,1020,1019.9950467665657,523,5.050803064221242,0.001
520,3.8161110527294944,1020,1019.995038815492,523,4.6569151502637265,0.002
522,3.8700922344393045,1020,1019.9950308527099,522,4.29823504089868,0.003
523,3.904853413355157,1020,1019.995022878238,521,3.991455748193556,0.004
519,3.975448017521709,1020,1019.9950148920956,520,3.7500625591425774,0.005
520,4.066714460738538,1020,1019.9950068943016,519,3.583548656352342,0.006
522,4.115269337169687,1020,1019.9949988848751,519,3.4968799476879697,0.007
524,4.1208870445612105,1020,1019.9949908638349,519,3.490258640011124,0.008
520,4.133826150999489,1020,1019.9949828312004,519,3.559216459891567,0.009
515,4.1347646015440205,1020,1019.9949747869917,519,3.695042948197413,0.01
516,4.159892671495841,1020,1019.9949667312288,520,3.8855250658321547,0.011
513,4.172619086769155,1020,1019.9949586639312,522,4.115944300689461,0.012
508,4.230575224944521,1020,1019.9949505851176,523,4.37024936663378,0.013
502,4.237824101879485,1020,1019.9949424948071,524,4.632300578443095,0.014
504,4.240188761199677,1020,1019.9949343930188,524,4.887071168420935,0.015
502,4.257512452261565,1020,1019.9949262797717,525,5.121694360697106,0.016
504,4.305303803429691,1020,1019.9949181550845,525,5.326262149724724,0.017
503,4.40658949849348,1020,1019.9949100189759,525,5.494308920943824,0.018
511,4.452784354185697,1020,1019.9949018714641,524,5.622946581216329,0.019
511,4.457629712906071,1020,1019.9948937125677,524,5.712654505536904,0.02
512,4.51741230634718,1020,1019.9948855423057,523,5.76676377939893,0.021
515,4.80954853739716,1020,1019.9948773606978,522,5.790706976818766,0.022
519,5.0024077279186985,1020,1019.9948691677631,521,5.791128717117059,0.023
518,5.032443861246888,1020,1019.9948609635206,520,5.774966012360649,0.024
516,5.087167004956292,1020,1019.9948527479895,519,5.748608850773926,0.025
513,5.214832833889505,1020,1019.9948445211893,520,5.717238993360433,0.026
510,5.182311814470311,1020,1019.9948362831395,520,5.684418665916599,0.027
511,5.190962114439172,1020,1019.9948280338598,521,5.65196358777032,0.028
509,5.103126640702482,1020,1019.9948197733701,523,5.620092384894678,0.029
508,5.030035279671341,1020,1019.9948115016904,524,5.587804223968991,0.03
510,5.167059796762292,1020,1019.9948032188412,524,5.553405628525926,0.031
512,5.128640790790417,1020,1019.994794924843,524,5.515091381818348,0.032
513,4.929626471440857,1020,1019.9947866197161,524,5.471485049723586,0.033
512,4.742344271313545,1020,1019.9947783034817,524,5.422059169945591,0.034
511,4.6547313470754315,1020,1019.9947699761609,524,5.3673781610914055,0.035
511,4.720525595527951,1020,1019.9947616377752,524,5.309134021428785,0.036
515,4.893369954248931,1020,1019.9947532883465,523,5.249973702293599,0.037
511,5.363228652373793,1020,1019.9947449278969,521,5.193146493501938,0.038
512,5.71334218260113,1020,1019.9947365564493,520,5.142027618257799,0.039
512,5.759115655098523,1020,1019.9947281740259,519,5.099595916247792,0.04
514,5.685723833182617,1020,1019.994719780649,519,5.067953182179721,0.041
516,5.530598761491604,1020,1019.9947113763404,519,5.047966692895068,0.042
509,5.518733353551056,1020,1019.994702961122,520,5.039095536278,0.043
511,5.438783393075321,1020,1019.9946945350156,520,5.03943042615148,0.044
508,5.518952222421919,1020,1019.994686098043,521,5.045942243951081,0.045
496,5.645476261497021,1020,1019.994677650226,522,5.054902451614155,0.046
501,5.652031918123616,1020,1019.9946691915869,523,5.062412984241632,0.047
509,5.749450300108482,1020,1019.9946607221485,523,5.0649671640818275,0.048
513,5.820453416058861,1020,1019.994652241934,524,5.059958706337249,0.049
517,5.978058701245735,1020,1019.9946437509669,523,5.046063826323471,0.05
520,6.075554850606473,1020,1019.9946352492715,523,5.023440484416471,0.051
523,6.088459366986558,1020,1019.9946267368722,523,4.993715640410525,0.052
519,6.087860001658001,1020,1019.9946182137936,521,4.959761800296341,0.053
521,6.064563825551775,1020,1019.9946096800608,521,4.925293947410115,0.054
526,6.023464616388239,1020,1019.9946011356991,520,4.894343389543792,0.055
519,6.0133424487450045,1020,1019.9945925807341,519,4.8706827146419585,0.056
511,6.1555472349080915,1020,1019.9945840151912,519,4.857283410833522,0.057
515,6.2997951885347945,1020,1019.9945754390959,518,4.855883850403124,0.058
504,6.35820998529345,1020,1019.9945668524737,519,4.866730764377794,0.059
503,6.400973411528378,1020,1019.9945582553504,519,4.88853361970935,0.06
496,6.523861820762323,1020,1019.994549647752,520,4.918641337218302,0.061
485,6.67145664943371,1020,1019.9945410297049,521,4.953418802536189,0.062
487,6.740687241137191,1020,1019.9945324012359,522,4.9887715253505664,0.063
499,6.8734376261439865,1020,1019.9945237623718,522,5.020745142730907,0.064
504,6.917639279818216,1020,1019.9945151131395,523,5.046115546156082,0.065
512,6.9024070665253925,1020,1019.9945064535663,523,5.062886532875585,0.066
519,6.90151637701619,1020,1019.9944977836789,523,5.070624202668071,0.067
515,6.854577051558187,1020,1019.9944891035042,523,5.070578753897875,0.068
504,6.91952111504173,1020,1019.994480413069,522,5.065572365489569,0.069
503,7.0447975327921,1020,1019.9944717124002,521,5.059663486902065,0.07
513,7.152340622209979,1020,1019.9944630015247,520,5.05762926118771,0.071
518,7.0258183830775645,1020,1019.9944542804695,519,5.064334363974939,0.072
521,6.894972660423888,1020,1019.9944455492622,519,5.084071692022775,0.073
524,6.9241875766901755,1020,1019.9944368079304,518,5.1199650457259835,0.074
520,6.933452083585418,1020,1019.9944280565013,518,5.1735157219541295,0.075
512,6.86741865830732,1020,1019.9944192950019,519,5.244355394717552,0.076
515,6.794272801601048,1020,1019.9944105234589,519,5.3302395670326375,0.077
511,6.695148354542496,1020,1019.9944017418992,520,5.427282875449041,0.078
511,6.598457904850506,1020,1019.9943929503496,522,5.530404215549958,0.079
508,6.428144648496933,1020,1019.994384148837,522,5.633920929442481,0.08
503,6.167254795599268,1020,1019.994375337389,523,5.732211584900691,0.081
505,6.166588399119334,1020,1019.9943665160334,523,5.820359434312047,0.082
509,6.222083009964211,1020,1019.994357684798,523,5.894694312591926,0.083
515,6.199225523359313,1020,1019.9943488437106,523,5.95316742368134,0.084
520,6.265108634495381,1020,1019.9943399927987,523,5.99551744792396,0.085
521,6.2505593268438355,1020,1019.9943311320902,522,6.023214029753273,0.086
519,6.074088374306174,1020,1019.9943222616129,521,6.039193000742954,0.087
520,5.676908848410744,1020,1019.9943133813948,521,6.047423822725738,0.088
515,5.473545979142203,1020,1019.9943044914638,520,6.052370472919773,0.089
513,5.397812591051061,1020,1019.9942955918481,519,6.058419419582137,0.09
515,5.363224277767943,1020,1019.9942866825753,519,6.069350954531002,0.091
510,5.606680356971882,1020,1019.9942777636737,519,6.087922699492782,0.092
507,5.520068317876836,1020,1019.9942688351715,519,6.115617035133212,0.093
506,5.524667429730087,1020,1019.9942598970973,520,6.1525792540644915,0.094
504,5.4233507409428,1020,1019.9942509494798,521,6.1977439076099605,0.095
504,5.308654554345103,1020,1019.9942419923481,522,6.249117699158871,0.096
509,5.285319431203822,1020,1019.9942330257312,523,6.30416330203033,0.097
515,5.222078375951327,1020,1019.9942240496588,523,6.36021418678552,0.098
515,5.24769193352674,1020,1019.9942150641604,523,6.414848782613614,0.099
515,5.266417772283248,1020,1019.9942060692659,523,6.466162995436669,0.1
518,5.2761475386648735,1020,1019.994197065006,523,6.512900329138682,0.101
519,5.3408958570949725,1020,1019.9941880514115,522,6.554424359408082,0.102
516,5.330578547387857,1020,1019.9941790285137,521,6.590545196910165,0.103
513,5.3207455208501475,1020,1019.9941699963437,521,6.621236498237738,0.104
515,5.29340816359678,1020,1019.9941609549322,520,6.646299103961989,0.105
519,5.212283747115536,1020,1019.9941519043099,519,6.6650384649362,0.106
516,5.075750874108879,1020,1019.9941428445076,519,6.676024088310905,0.107
507,4.929333272195076,1020,1019.9941337755562,519,6.676990019008617,0.108
503,4.8910060703364735,1020,1019.9941246974876,519,6.6649163709083465,0.109
503,4.918343204520599,1020,1019.9941156103336,520,6.636304998860079,0.11
507,4.796290537831842,1020,1019.994106514126,521,6.5876312522678715,0.111
504,4.7317583079725765,1020,1019.9940974088962,521,6.515923181772169,0.112
499,4.76835919947559,1020,1019.9940882946761,523,6.419394487434089,0.113
502,4.790963749369377,1020,1019.9940791714974,523,6.298042054905023,0.114
507,4.806270216170941,1020,1019.9940700393926,523,6.154115917416897,0.115
496,4.81214074259332,1020,1019.9940608983937,522,5.992380015597698,0.116
506,4.766757238509064,1020,1019.9940517485333,523,5.820104962337796,0.117
515,4.743195113954549,1020,1019.9940425898438,522,5.646765311549361,0.118
512,4.6754876783141475,1020,1019.9940334223583,521,5.483448998451486,0.119
512,4.554624064368795,1020,1019.9940242461097,519,5.3420223967433,0.12
511,4.434730136647501,1020,1019.9940150611318,518,5.234127858077594,0.121
515,4.357556245617167,1020,1019.9940058674582,517,5.170116876399218,0.122
521,4.4079574116610765,1020,1019.9939966651226,517,5.158035496773355,0.123
525,4.393971439678595,1020,1019.9939874541591,516,5.202776043705538,0.124
519,4.41327250007579,1020,1019.9939782346017,516,5.305491439641591,0.125
515,4.465588932898206,1020,1019.9939690064842,517,5.463338497597282,0.126
513,4.35715971144917,1020,1019.9939597698402,519,5.669578215274651,0.127
511,4.32825719676781,1020,1019.9939505247038,520,5.914018633551443,0.128
511,4.256337311533292,1020,1019.9939412711086,521,6.1837456747400825,0.129
511,4.352884984389218,1020,1019.9939320090888,522,6.464056876077904,0.13
514,4.381848793058935,1020,1019.9939227386789,522,6.739496868289544,0.131
511,4.386708473180169,1020,1019.9939134599139,522,6.994892144786814,0.132
513,4.579483538240231,1020,1019.9939041728288,523,7.216293082269658,0.133
515,4.784058333061011,1020,1019.9938948774587,523,7.391749110115807,0.134
510,4.779284103039803,1020,1019.9938855738391,523,7.511865001184702,0.135
507,4.7291877012520125,1020,1019.9938762620053,523,7.5701109173124665,0.136
503,4.7100767600660784,1020,1019.9938669419934,521,7.562885479794315,0.137
504,4.8469581186149835,1020,1019.9938576138396,521,7.489358126550652,0.138
508,4.949679464410014,1020,1019.9938482775809,519,7.351140824617549,0.139
512,5.082301021574687,1020,1019.9938389332546,519,7.151855293528755,0.14
511,5.330919837770173,1020,1019.9938295808978,519,6.896666709700302,0.141
511,5.293632978785176,1020,1019.993820220548,518,6.591847576010268,0.142
509,5.212116254534422,1020,1019.9938108522427,519,6.244418330844432,0.143
513,5.20224536893822,1020,1019.9938014760204,519,5.861888560682749,0.144
509,5.237502448637815,1020,1019.9937920919195,519,5.452098967285878,0.145
508,5.2798840696702,1020,1019.9937826999789,519,5.023143687697678,0.146
506,5.3508463932503,1020,1019.993773300237,519,4.583338393750553,0.147
510,5.281904710147562,1020,1019.9937638927325,519,4.141193354849063,0.148
516,5.133930828629522,1020,1019.9937544775047,518,3.7053522499041693,0.149
518,4.9687462317177715,1020,1019.9937450545921,518,3.2844660634169602,0.15
513,4.947133975368133,1020,1019.9937356240333,517,2.886985421170987,0.151
506,5.0214328745417,1020,1019.9937261858671,516,2.520871990351514,0.152
513,5.009633443897315,1020,1019.9937167401321,515,2.193247423737374,0.153
519,5.0547109573206646,1020,1019.9937072868673,515,1.9100140326878523,0.154
517,5.076058059656308,1020,1019.993697826112,514,1.6754924361244612,0.155
521,5.105601867645495,1020,1019.9936883579052,513,1.4921263876026971,0.156
526,5.112660547921424,1020,1019.9936788822864,512,1.360303649222694,0.157
526,5.175830759598152,1020,1019.9936693992948,512,1.2783339931425068,0.158
519,5.178031608847689,1020,1019.99365990897,513,1.2426101615500438,0.159
517,5.2818181281631515,1020,1019.993650411352,513,1.2479546710514517,0.16
508,5.409377017176293,1020,1019.9936409064807,515,1.288127505686272,0.161
500,5.50804398140226,1020,1019.9936313943957,516,1.3564426689313227,0.162
494,5.577906445016789,1020,1019.9936218751367,516,1.4464215544245758,0.163
498,5.427694768874071,1020,1019.9936123487431,516,1.5524029459240154,0.164
495,5.450591014437347,1020,1019.9936028152546,516,1.670034813879751,0.165
500,5.473476799553497,1020,1019.9935932747106,516,1.7965895470050728,0.166
512,5.554407128441489,1020,1019.9935837271508,516,1.9310668913723024,0.167
516,5.698130237392321,1020,1019.9935741726148,516,2.074073224348376,0.168
515,5.814890573444952,1020,1019.9935646111425,516,2.2274895249774525,0.169
515,5.84349996336133,1020,1019.9935550427748,515,2.393962624963013,0.17
516,5.79745583507198,1020,1019.9935454675527,515,2.57627428727158,0.171
512,5.76853048086406,1020,1019.9935358855176,514,2.7766588623227864,0.172
515,5.758161139238452,1020,1019.9935262967114,514,2.9961503961724234,0.173
517,5.750643184880416,1020,1019.9935167011757,513,3.2340417991886286,0.174
519,5.705494322326849,1020,1019.9935070989526,513,3.4875305558933403,0.175
519,5.591631336500596,1020,1019.9934974900842,514,3.751606969858914,0.176
513,5.6514158956109535,1020,1019.9934878746134,515,4.019212764778358,0.177
509,5.572542077054195,1020,1019.9934782525833,516,4.281662804050364,0.178
510,5.690449775522446,1020,1019.9934686240366,518,4.529286152877865,0.179
513,5.738162669248138,1020,1019.9934589890166,519,4.752211349675088,0.18
514,5.893861707005405,1020,1019.993449347567,519,4.941200368327149,0.181
515,5.9239770670965175,1020,1019.9934396997309,520,5.0884298392163965,0.182
509,5.669054488001777,1020,1019.9934300455519,520,5.1881270339604475,0.183
503,5.618980960212856,1020,1019.9934203850738,519,5.23698928211008,0.184
503,5.477985479106952,1020,1019.9934107183407,519,5.234344722481864,0.185
502,5.410440722030959,1020,1019.9934010453961,518,5.182045148827389,0.186
499,5.624180688958998,1020,1019.9933913662843,518,5.084113740315012,0.187
511,5.61391901498834,1020,1019.9933816810498,517,4.946197978715965,0.188
515,5.448974266165028,1020,1019.9933719897375,515,4.7748990337028765,0.189
513,5.282316468784083,1020,1019.9933622923926,515,4.577062346708806,0.19
515,5.057947800929584,1020,1019.9933525890596,514,4.359118530438037,0.191
520,5.015688705008006,1020,1019.993342879783,513,4.12655706419976,0.192
519,5.150350646915416,1020,1019.9933331646079,513,3.8835969708727585,0.193
513,5.1084672515535985,1020,1019.9933234435788,515,3.6330902230245945,0.194
511,5.1910105739992245,1020,1019.9933137167403,515,3.376658406482791,0.195
508,5.305982121797968,1020,1019.993303984137,516,3.115026782569966,0.196
506,5.366425745558949,1020,1019.993294245813,516,2.848489769013759,0.197
509,5.479386395556976,1020,1019.9932845018124,517,2.5774241236461877,0.198
513,5.597244994099377,1020,1019.9932747521797,516,2.3027629099903995,0.199
511,5.608910115446025,1020,1019.993264996959,516,2.0263535228456617,0.2
507,5.54439126509352,1020,1019.9932552361951,515,1.751143968032617,0.201
513,5.414863954943194,1020,1019.9932454699332,514,1.4811694027738935,0.202
518,5.40875015782783,1020,1019.9932356982189,513,1.221340948757748,0.203
520,5.404328583103454,1020,1019.9932259210972,513,0.977066359166114,0.204
524,5.470519695054992,1020,1019.9932161386126,512,0.7537537675819009,0.205
521,5.557785084632353,1020,1019.9932063508103,511,0.5562638977168571,0.206
509,5.550890572754346,1020,1019.9931965577351,510,0.38838287305273184,0.207
500,5.552087142078494,1020,1019.9931867594322,509,0.2523872698378533,0.208
510,5.738969898453232,1020,1019.9931769559465,509,0.14876418146662593,0.209
510,5.674838437340805,1020,1019.9931671473236,510,0.0761303766933802,0.21
497,5.540724999467336,1020,1019.9931573336092,511,0.03136676945659581,0.211
499,5.3978254916519735,1020,1019.993147514849,512,0.009951607096024656,0.212
502,5.245271844063897,1020,1019.9931376910885,512,0.006445038201519431,0.213
505,5.283711892869724,1020,1019.9931278623725,513,0.015055766019633486,0.214
506,5.202000848957123,1020,1019.9931180287462,513,0.030210758686925108,0.215
501,5.181765783709081,1020,1019.993108190254,514,0.04705125553915647,0.216
504,5.22489239253921,1020,1019.9930983469407,513,0.061790719343200684,0.217
513,5.198574646777415,1020,1019.9930884988506,513,0.07189103458943971,0.218
519,5.046129244972176,1020,1019.993078646029,512,0.07603985418568979,0.219
520,5.0362307560015775,1020,1019.9930687885211,511,0.07394094622861566,0.22
519,5.103834859087314,1020,1019.9930589263726,511,0.0659560691168968,0.221
517,5.073289045926046,1020,1019.9930490596283,510,0.0526570913822623,0.222
521,5.042040812696487,1020,1019.993039188333,510,0.03435826036942415,0.223
517,5.053367694534612,1020,1019.9930293125316,509,0.010700257312527228,0.224
516,5.043880050797009,1020,1019.9930194322691,509,-0.019649208305919926,0.225
512,5.047305978898464,1020,1019.9930095475914,509,-0.05912801000929012,0.226
513,4.973960866239747,1020,1019.992999658545,509,-0.11121634085708706,0.227
513,4.9746895297353095,1020,1019.9929897651758,510,-0.18017477344878272,0.228
516,4.907929657008305,1020,1019.9929798675297,511,-0.2706094250397777,0.229
517,4.846864834468141,1020,1019.9929699656531,512,-0.386916876770162,0.23
514,4.779901119469917,1020,1019.9929600595932,512,-0.5326818265767481,0.231
508,4.717964881279761,1020,1019.9929501493974,512,-0.7101098215077122,0.232
500,4.858081607378787,1020,1019.992940235113,512,-0.91957374030323,0.233
506,4.778090166869606,1020,1019.9929303167881,512,-1.159337268672794,0.234
512,4.844627442455785,1020,1019.9929203944715,510,-1.4254948521597306,0.235
509,4.986261912140313,1020,1019.9929104682113,510,-1.7121392674384992,0.236
507,4.771553848926965,1020,1019.9929005380553,509,-2.011738791712452,0.237
509,4.552506694635182,1020,1019.9928906040521,508,-2.315679948611273,0.238
511,4.415746344259944,1020,1019.9928806662514,507,-2.6149121021435717,0.239
512,4.355695629543069,1020,1019.9928707247021,505,-2.9006182956488127,0.24
505,4.376482430625039,1020,1019.992860779454,505,-3.1648337573277834,0.241
504,4.374715353283848,1020,1019.9928508305564,505,-3.400941018375482,0.242
511,4.353399913070243,1020,1019.9928408780592,505,-3.6039894550470604,0.243
510,4.315501284669085,1020,1019.9928309220116,506,-3.770815177381177,0.244
508,4.195220271109024,1020,1019.9928209624635,507,-3.8999693403261495,0.245
510,4.0445685383918635,1020,1019.9928109994643,508,-3.9914927820342223,0.246
515,3.9862549272267676,1020,1019.992801033064,508,-4.046596647883542,0.247
514,4.061821163753322,1020,1019.9927910633131,508,-4.0673182085829165,0.248
510,4.10134092256453,1020,1019.9927810902631,508,-4.056217153015344,0.249
512,4.057645775530592,1020,1019.9927711139657,508,-4.016162444559476,0.25
511,4.116982855251539,1020,1019.9927611344727,508,-3.9502376360750953,0.251
514,4.151780560044895,1020,1019.9927511518366,507,-3.8617672718486613,0.252
515,4.168875002078556,1020,1019.99274116611,507,-3.754441346008647,0.253
518,4.146096131856423,1020,1019.9927311773453,506,-3.6324910269129873,0.254
521,4.057272535285538,1020,1019.9927211855951,505,-3.5008496970609686,0.255
519,3.9792029391698236,1020,1019.9927111909127,504,-3.3652217125923345,0.256
520,4.062839213870054,1020,1019.9927011933513,503,-3.231979965638126,0.257
519,4.094146066317879,1020,1019.9926911929641,504,-3.1078249000754274,0.258
507,3.9064288778266802,1020,1019.9926811898048,503,-2.9991634402279552,0.259
504,3.8356816240219658,1020,1019.9926711839274,504,-2.911205003807552,0.26
508,3.9057734617564184,1020,1019.9926611753857,505,-2.8468192962754855,0.261
511,3.9129678932351073,1020,1019.9926511642337,508,-2.805251516170897,0.262
509,3.8651714510098905,1020,1019.9926411505256,509,-2.7808386652114665,0.263
509,3.9117618970219747,1020,1019.992631134316,510,-2.7619080100158655,0.264
505,4.2054039213565035,1020,1019.9926211156597,512,-2.7300572889761887,0.265
502,4.5508476996505065,1020,1019.992611094612,514,-2.6600110372269046,0.266
505,4.644622124796391,1020,1019.9926010712287,514,-2.5202175690891306,0.267
511,4.591202273798311,1020,1019.9925910455662,515,-2.274297667694082,0.268
510,4.62432623925509,1020,1019.9925810176813,514,-1.8833806773560926,0.269
513,4.66271877068289,1020,1019.9925709876314,512,-1.3092710590305816,0.27
516,4.732716682975873,1020,1019.9925609554738,510,-0.5182873882425643,0.271
521,4.871177508391034,1020,1019.9925509212661,508,0.51448130380858,0.272
523,5.200593312630068,1020,1019.9925408850662,507,1.8008358879848652,0.273
506,5.480279542353099,1020,1019.9925308469313,507,3.335426436528534,0.274
505,5.4741107651354515,1020,1019.9925208069197,506,5.092402579258566,0.275
507,5.53821664874515,1020,1019.9925107650905,508,7.023117186013604,0.276
510,5.615877682735661,1020,1019.9925007215037,510,9.055179270141519,0.277
509,5.597675270323844,1020,1019.9924906762193,514,11.093055168234232,0.278
512,5.5757041777681495,1020,1019.9924806292969,518,13.02029893879053,0.279
508,5.475503794648036,1020,1019.9924705807961,521,14.703366357653035,0.28
505,5.288902004990256,1020,1019.9924605307764,525,15.99684634754598,0.281
505,5.151310193051981,1020,1019.9924504792979,527,16.749841544632933,0.282
510,5.049669509766814,1020,1019.9924404264215,527,16.813153723703756,0.283
512,4.922511546501077,1020,1019.9924303722086,527,16.04688268996725,0.284
516,4.98288114610522,1020,1019.9924203167205,527,14.328027119899671,0.285
513,4.9075808662467235,1020,1019.9924102600193,525,11.557677770613461,0.286
513,4.928077651741691,1020,1019.9924002021666,521,7.667413021053482,0.287
515,5.085082849539971,1020,1019.9923901432243,516,2.6245422229482775,0.288
526,5.068562087019562,1020,1019.9923800832538,511,-3.564106928292674,0.289
528,5.067264649211046,1020,1019.9923700223165,504,-10.850097402185973,0.29
522,4.980272869707063,1020,1019.9923599604739,497,-19.143155781078992,0.291
515,4.861256889500427,1020,1019.9923498977877,488,-28.3128954900274,0.292
513,4.74852603338932,1020,1019.9923398343188,478,-38.19248602644732,0.293
507,4.775991926837508,1020,1019.9923297701288,466,-48.58416333917479,0.294
504,4.8357973628401725,1020,1019.9923197052789,452,-59.266368491786146,0.295
502,4.855521540748918,1020,1019.9923096398305,440,-70.00219325047645,0.296
491,4.875130241404902,1020,1019.9922995738451,426,-80.54871335637993,0.297
494,4.7515762881832435,1020,1019.9922895073845,413,-90.66671528716682,0.298
510,4.653326457434876,1020,1019.9922794405105,401,-100.13028014701038,0.299
507,4.735620450923217,1020,1019.9922693732846,391,-108.73568505535027,0.3
507,4.695600837127015,1020,1019.992259305768,382,-116.30912084158005,0.301
512,4.788824261157753,1020,1019.9922492380227,376,-122.71280402223167,0.302
514,4.848099154933274,1020,1019.992239170111,374,-127.84917518162679,0.303
512,4.8679391491085,1020,1019.9922291020952,374,-131.66301423150264,0.304
512,4.983084425566145,1020,1019.9922190340379,373,-134.1414497520477,0.305
511,5.080414931797921,1020,1019.9922089660021,373,-135.31197538340098,0.306
508,5.152841535999288,1020,1019.9921988980508,373,-135.23869432542344,0.307
512,5.3896028563489,1020,1019.9921888302473,374,-134.017086722122,0.308
519,5.556986999962718,1020,1019.9921787626553,377,-131.7676386981813,0.309
516,5.555842185522563,1020,1019.9921686953379,381,-128.62869611393444,0.31
508,5.475496183966299,1020,1019.9921586283589,385,-124.74891892654068,0.311
503,5.500739673973716,1020,1019.9921485617823,390,-120.27971652300681,0.312
511,5.606684498435789,1020,1019.9921384956727,397,-115.36803989362413,0.313
515,5.519241568275127,1020,1019.9921284300948,404,-110.14989131762454,0.314
514,5.293716120351228,1020,1019.9921183651135,412,-104.74488384362051,0.315
516,5.062469395756431,1020,1019.9921083007943,418,-99.25213668535717,0.316
513,4.941978933924997,1020,1019.9920982372031,423,-93.74772307397589,0.317
514,4.928750686688655,1020,1019.9920881744064,428,-88.28379157266473,0.318
517,4.9707851639038365,1020,1019.99207811247,431,-82.88936451887191,0.319
515,4.925180616648856,1020,1019.9920680514596,432,-77.57268874431315,0.32
518,4.82305619576278,1020,1019.9920579914409,434,-72.32488841279451,0.321
516,4.733219693193497,1020,1019.99204793248,436,-67.1245636801424,0.322
519,4.373052690311918,1020,1019.9920378746432,440,-61.94290736099761,0.323
520,4.050294688468843,1020,1019.9920278179969,443,-56.74888559932792,0.324
518,4.0619897231672715,1020,1019.9920177626076,448,-51.514049864075226,0.325
519,4.061949783744131,1020,1019.9920077085411,454,-46.21661071022548,0.326
518,4.0634850663807205,1020,1019.9919976558639,461,-40.84449870341863,0.327
509,4.153029805942141,1020,1019.9919876046428,469,-35.39725272060852,0.328
507,4.240891332804718,1020,1019.9919775549455,477,-29.886696664198645,0.329
504,4.338577657825431,1020,1019.9919675068403,484,-24.33647769095132,0.33
502,4.343125717943686,1020,1019.9919574603954,490,-18.78062955534459,0.331
494,4.398350211535995,1020,1019.991947415679,497,-13.261386142581621,0.332
502,4.415093443691109,1020,1019.9919373727597,503,-7.826502127673376,0.333
509,4.521617213528111,1020,1019.9919273317067,509,-2.5263442414479393,0.334
512,4.413076666548292,1020,1019.9919172925887,515,2.5889970014373813,0.335
507,4.387777505874981,1020,1019.9919072554743,520,7.47235549148472,0.336
504,4.459724687846125,1020,1019.9918972204326,524,12.081722507383835,0.337
511,4.427356017797714,1020,1019.9918871875333,527,16.381945535478625,0.338
514,4.533926759407852,1020,1019.9918771568463,529,20.345837501838847,0.339
518,4.547753434131958,1020,1019.9918671284412,531,23.954705003486406,0.34
515,4.519824908426383,1020,1019.9918571023876,533,27.198359862356607,0.341
516,4.4468260705198555,1020,1019.9918470787551,535,30.074717660862476,0.342
514,4.472896272118688,1020,1019.9918370576128,537,32.589105038265814,0.343
513,4.495983610965222,1020,1019.9918270390307,540,34.75339413354859,0.344
508,4.4273892296968915,1020,1019.9918170230784,543,36.5850613384627,0.345
508,4.4268883603938285,1020,1019.991807009826,546,38.106235124031535,0.346
508,4.461805296303969,1020,1019.9917969993443,548,39.34276282780846,0.347
512,4.498762735071915,1020,1019.9917869917043,549,40.32329790093263,0.348
512,4.474857537454231,1020,1019.991776986977,550,41.07839348451695,0.349
515,4.450729023879195,1020,1019.9917669852333,550,41.639586674284985,0.35
515,4.505556202298492,1020,1019.9917569865437,550,42.03846729425523,0.351
517,4.461899449135814,1020,1019.9917469909786,550,42.30574022063527,0.352
518,4.367553531055503,1020,1019.9917369986091,550,42.4703063426947,0.353
517,4.369283268740722,1020,1019.991727009506,550,42.558400712745865,0.354
512,4.263148344453771,1020,1019.9917170237399,549,42.592835816877056,0.355
508,4.132374561560954,1020,1019.9917070413807,548,42.59240296371948,0.356
507,4.073244125148955,1020,1019.991697062498,547,42.571484976542685,0.357
505,3.9878949068682013,1020,1019.991687087162,548,42.53992665483834,0.358
510,3.8162447310940086,1020,1019.9916771154425,547,42.50319346655955,0.359
508,3.8281770851292425,1020,1019.9916671474097,548,42.46282350550206,0.36
504,3.8656426055389552,1020,1019.991657183134,550,42.41714606663292,0.361
504,3.8723374580648873,1020,1019.9916472226863,551,42.362207538393996,0.362
505,3.8747179229270614,1020,1019.9916372661377,551,42.29281799938204,0.363
508,3.9786879466754232,1020,1019.9916273135594,551,42.203616302362114,0.364
511,3.9238901636177737,1020,1019.9916173650234,551,42.09005113970503,0.365
512,3.8211779917327875,1020,1019.9916074206011,551,41.9491891288277,0.366
513,3.8102167585494744,1020,1019.9915974803633,550,41.78028348820574,0.367
515,3.8671567335487973,1020,1019.9915875443816,550,41.58506379323139,0.368
512,3.8346019776968707,1020,1019.9915776127276,549,41.36773550055545,0.369
515,3.8896471443306035,1020,1019.9915676854733,549,41.13470503493107,0.37
518,3.9435214314566993,1020,1019.9915577626911,548,40.89407035215149,0.371
518,3.871805405396734,1020,1019.9915478444535,547,40.65493694663103,0.372
516,3.94237206999864,1020,1019.9915379308335,546,40.42663461840759,0.373
519,4.083245759405322,1020,1019.9915280219037,545,40.21791977901141,0.374
519,4.10215919146405,1020,1019.9915181177374,544,40.03624964855862,0.375
517,4.078982840144021,1020,1019.9915082184078,544,39.88720634930654,0.376
511,4.068210201106804,1020,1019.9914983239881,545,39.77412982761431,0.377
509,3.9607093667977735,1020,1019.991488434552,545,39.697990220366776,0.378
512,3.941988387663601,1020,1019.9914785501732,547,39.65749703237171,0.379
511,3.933604523182006,1020,1019.9914686709252,547,39.6494106202423,0.38
504,3.9434568404442865,1020,1019.9914587968827,547,39.66899712396705,0.381
498,3.896632025007676,1020,1019.9914489281199,548,39.710554939490336,0.382
510,3.9189735476008187,1020,1019.9914390647112,548,39.76793953675002,0.383
513,3.9522568746052973,1020,1019.9914292067318,548,39.83502185801387,0.384
509,4.009543910217032,1020,1019.9914193542571,548,39.906031175604674,0.385
506,4.01580062912646,1020,1019.9914095073626,547,39.97575408430393,0.386
504,3.9552050115283977,1020,1019.9913996661238,547,40.039584833506105,0.387
505,3.8153079922119972,1020,1019.9913898306157,546,40.09344518172943,0.388
510,3.6998007235836843,1020,1019.9913800009134,546,40.133610948347446,0.389
512,3.6726521302485864,1020,1019.9913701770919,545,40.156494875449184,0.39
515,3.7423176794451387,1020,1019.9913603592266,545,40.1584400106063,0.391
518,3.8025482720900063,1020,1019.9913505473936,545,40.1355743430238,0.392
513,3.8011760454045667,1020,1019.9913407416688,545,40.08376644738564,0.393
515,3.8039885231123423,1020,1019.991330942128,545,39.998704970296075,0.394
515,3.799248432665315,1020,1019.9913211488478,545,39.876104406376115,0.395
511,3.7823706948997455,1020,1019.9913113619049,546,39.712018366451545,0.396
505,3.675146072265853,1020,1019.9913015813767,547,39.503221706498366,0.397
504,3.6944324166928015,1020,1019.9912918073409,547,39.247607076770535,0.398
508,3.7842044760488607,1020,1019.9912820398757,547,38.944533193370106,0.399
509,3.779410766518751,1020,1019.9912722790599,546,38.595064494972284,0.4
507,3.7345075584354452,1020,1019.9912625249721,546,38.20205505483744,0.401
511,3.7038462790082356,1020,1019.9912527776913,545,37.77005057946238,0.402
517,3.7103189590025534,1020,1019.9912430372968,544,37.30500667442247,0.403
517,3.747321215668926,1020,1019.9912333038677,543,36.81384577012859,0.404
510,3.7819763547443657,1020,1019.9912235774831,542,36.30389672327407,0.405
512,3.793838318322414,1020,1019.9912138582225,541,35.78227805372084,0.406
517,3.7455840127956757,1020,1019.9912041461661,539,35.25529624909989,0.407
519,3.6118201945535335,1020,1019.9911944413942,538,34.72793324973252,0.408
516,3.723422491414861,1020,1019.9911847439879,537,34.203490799608495,0.409
508,3.8100365652574566,1020,1019.9911750540281,538,33.683442458442116,0.41
507,3.843647898608217,1020,1019.9911653715957,538,33.167516977297225,0.411
511,3.792270501925659,1020,1019.9911556967721,538,32.65400327657225,0.412
511,3.692202090400507,1020,1019.9911460296383,539,32.14023424194441,0.413
509,3.735548171836053,1020,1019.9911363702753,539,31.623180639743037,0.414
508,3.9825612192462936,1020,1019.9911267187634,539,31.100071810981884,0.415
508,4.113415404038223,1020,1019.9911170751833,538,30.568958141707114,0.416
510,4.070106552584072,1020,1019.9911074396158,537,30.029141293490405,0.417
508,3.9430524061472982,1020,1019.9910978121424,537,29.481419034207683,0.418
511,3.9884379614140015,1020,1019.9910881928453,536,28.928117613736728,0.419
509,3.9874637964273045,1020,1019.9910785818073,535,28.37291181939131,0.42
510,3.994989812537244,1020,1019.9910689791117,533,27.82045895211618,0.421
518,4.0656721140120675,1020,1019.9910593848412,532,27.275896631806212,0.422
521,3.9981929334476822,1020,1019.991049799078,531,26.744273024440012,0.423
518,3.9078104918105656,1020,1019.9910402219047,530,26.2299883427906,0.424
517,3.924553837365337,1020,1019.9910306534028,528,25.7363261427652,0.425
515,3.9519887825621725,1020,1019.9910210936545,528,25.265141961783527,0.426
512,3.878453908596762,1020,1019.9910115427414,528,24.81675598567226,0.427
507,3.9174692625232526,1020,1019.9910020007459,529,24.390066801782243,0.428
509,3.832108146306104,1020,1019.9909924677503,530,23.98286813337532,0.429
510,3.790219944295181,1020,1019.990982943836,530,23.592316220072256,0.43
506,3.896849844603056,1020,1019.990973429084,531,23.21546989611463,0.431
505,3.976790973131106,1020,1019.9909639235756,531,22.849813955958737,0.432
504,3.888349295935431,1020,1019.9909544273922,530,22.493680865306136,0.433
504,3.7486731443918395,1020,1019.9909449406149,529,22.14650482633717,0.434
507,3.6932063399389694,1020,1019.9909354633245,528,21.80887167510903,0.435
509,3.634179179549463,1020,1019.9909259956015,527,21.482362028514576,0.436
513,3.5890906800205076,1020,1019.990916537526,526,21.169216925865552,0.437
519,3.6129251177762614,1020,1019.9909070891775,525,20.87188006456946,0.438
524,3.685854439128884,1020,1019.9908976506352,524,20.592486247249813,0.439
519,3.713662189066514,1020,1019.9908882219783,524,20.332371097203655,0.44
513,3.696603263094843,1020,1019.9908788032852,523,20.091672574477993,0.441
511,3.7887824670196664,1020,1019.9908693946353,523,19.869081361761793,0.442
506,4.000526660204126,1020,1019.9908599961076,523,19.661776722826936,0.443
508,3.9766778953296154,1020,1019.9908506077812,524,19.46555934077529,0.444
506,4.046035298311017,1020,1019.9908412297353,524,19.27516567502763,0.445
508,4.08452951806518,1020,1019.990831862049,525,19.084723143573584,0.446
509,4.248343546708839,1020,1019.9908225048015,525,18.888286047666472,0.447
509,4.2883873237183945,1020,1019.9908131580713,525,18.680381801632276,0.448
508,4.287868644435088,1020,1019.9908038219377,525,18.456496926359243,0.449
508,4.209596818199758,1020,1019.9907944964792,525,18.213441651231925,0.45
512,4.18126020784011,1020,1019.9907851817746,525,17.949548877484776,0.451
514,4.188036001861436,1020,1019.990775877903,523,17.66468557054753,0.452
514,4.395414919664342,1020,1019.9907665849436,522,17.360080341830038,0.453
515,4.554617976065096,1020,1019.9907573029753,522,17.037996992614467,0.454
519,4.710547546038021,1020,1019.9907480320775,520,16.7013056231527,0.455
516,4.862978976490466,1020,1019.9907387723291,519,16.35301655679207,0.456
514,4.8758089667905455,1020,1019.9907295238089,519,15.995846053975015,0.457
512,4.861749754087157,1020,1019.9907202865955,519,15.63187647236061,0.458
511,4.831089255086802,1020,1019.9907110607681,518,15.262358067445664,0.459
511,5.139648959069106,1020,1019.9907018464058,518,14.887677699138267,0.46
515,5.497886381143405,1020,1019.9906926435873,519,14.507495107641601,0.461
510,5.777113114509412,1020,1019.9906834523916,519,14.12102322558744,0.462
508,5.960224033936854,1020,1019.9906742728975,519,13.727407791812675,0.463
508,5.919511788321143,1020,1019.9906651051837,519,13.326146532935933,0.464
509,5.76498318356288,1020,1019.9906559493287,519,12.917482083175438,0.465
504,5.832234881205289,1020,1019.9906468054113,519,12.50270610473671,0.466
499,5.9788585715292015,1020,1019.9906376735106,518,12.084323542396831,0.467
510,6.05581176984012,1020,1019.9906285537062,518,11.666044105186826,0.468
515,6.027467750498039,1020,1019.9906194460772,516,11.252591198609524,0.469
516,6.093286946160976,1020,1019.9906103507022,515,10.849343984312313,0.47
520,6.000866262381778,1020,1019.9906012676596,515,10.461852324128557,0.471
521,5.9330486248283085,1020,1019.9905921970275,513,10.095283155262297,0.472
519,5.893305941447539,1020,1019.9905831388841,512,9.753867624193399,0.473
515,5.854121629091586,1020,1019.9905740933071,512,9.440420093693689,0.474
505,5.864207529854889,1020,1019.9905650603745,511,9.155992687559113,0.475
516,5.896293287711425,1020,1019.9905560401638,512,8.899712506640709,0.476
520,6.009577894253342,1020,1019.9905470327525,512,8.668824833509595,0.477
523,6.100768074761911,1020,1019.9905380382178,512,8.458938455249788,0.478
519,6.337355918452824,1020,1019.9905290566375,512,8.2644432987588,0.479
519,6.499192252550066,1020,1019.9905200880888,513,8.079049347513253,0.48
515,6.51823019191119,1020,1019.9905111326497,514,7.896380883313307,0.481
515,6.673011545270474,1020,1019.9905021903977,514,7.710552437556005,0.482
504,7.03293120342344,1020,1019.9904932614107,514,7.516654321004867,0.483
487,7.383500343349646,1020,1019.990484345767,513,7.311088134800369,0.484
488,7.431452920020909,1020,1019.9904754435446,512,7.091715594813251,0.485
493,7.522030458402025,1020,1019.9904665548223,511,6.857813114559713,0.486
499,7.653337120599822,1020,1019.9904576796793,510,6.609853714855796,0.487
503,7.922153624385976,1020,1019.9904488181945,510,6.349161307897044,0.488
505,8.234203525393376,1020,1019.9904399704473,509,6.077496939583256,0.489
498,8.638818182002458,1020,1019.9904311365161,508,5.7966417492582885,0.49
501,8.980126938558948,1020,1019.9904223164802,508,5.508038617247885,0.491
505,9.038736563264516,1020,1019.9904135104183,507,5.212545091124065,0.492
514,8.79150955684736,1020,1019.9904047184085,507,4.91033484346984,0.493
517,8.843572817085708,1020,1019.9903959405295,507,4.600964322904715,0.494
511,8.877789280211335,1020,1019.99038717686,508,4.283597015608422,0.495
511,8.973427610477938,1020,1019.9903784274787,508,3.957352560661972,0.496
511,8.83424813356803,1020,1019.9903696924647,509,3.6217257577312707,0.497
512,8.67583609021399,1020,1019.9903609718971,509,3.2770056810308223,0.498
515,8.544662540866078,1020,1019.990352265855,509,2.924621104371907,0.499
517,8.549290274374487,1020,1019.9903435744171,508,2.567346572636859,0.5
517,8.583399432661544,1020,1019.9903348976617,508,2.2093226314830026,0.501
519,8.566699531626705,1020,1019.9903262356669,506,1.855870668095104,0.502
525,8.347683310912384,1020,1019.9903175885114,505,1.513112878119962,0.503
524,8.17593794234585,1020,1019.9903089562739,505,1.1874361185988376,0.504
519,8.055907220147112,1020,1019.9903003390326,504,0.8848605499588083,0.505
525,7.969327640707704,1020,1019.9902917368657,503,0.610387625548818,0.506
531,7.93194500458648,1020,1019.990283149852,502,0.3674072567857331,0.507
531,7.870205397775915,1020,1019.99027457807,501,0.15724181182989064,0.508
516,7.776024814565706,1020,1019.9902660215988,500,-0.02110538229863642,0.509
508,7.368917503636138,1020,1019.9902574805182,501,-0.17094867988236503,0.51
503,6.946504325300538,1020,1019.990248954908,502,-0.29764668787986975,0.511
498,6.731729650917416,1020,1019.9902404448488,503,-0.4080739359462369,0.512
492,6.630956350090414,1020,1019.9902319504212,504,-0.5098921406107845,0.513
489,6.640883223214336,1020,1019.990223471705,504,-0.6107058583024141,0.514
492,6.675421281944679,1020,1019.99021500878,505,-0.7172045769470787,0.515
502,6.583968017395544,1020,1019.9902065617251,505,-0.8343955819595696,0.516
512,6.4760132472814975,1020,1019.9901981306197,505,-0.9650205380812311,0.517
517,6.4572314922780505,1020,1019.9901897155427,504,-1.1092261559379033,0.518
518,6.414098262922849,1020,1019.9901813165733,504,-1.2645285124439072,0.519
521,6.365048615514946,1020,1019.9901729337902,503,-1.4260753229088083,0.52
515,6.452433961249599,1020,1019.990164567272,502,-1.5871749942323197,0.521
513,6.578583378244604,1020,1019.990156217097,501,-1.7400293693353255,0.522
515,6.764708834236812,1020,1019.9901478833434,499,-1.8765816991587463,0.523
515,6.967028962555406,1020,1019.9901395660885,498,-1.9893755710988328,0.524
518,7.012599346719434,1020,1019.9901312654096,498,-2.072317626236581,0.525
515,6.930209942391446,1020,1019.9901229813844,498,-2.12124946108512,0.526
512,6.8365540908113775,1020,1019.9901147140907,499,-2.1342618227810672,0.527
508,6.789061332504795,1020,1019.9901064636059,500,-2.1117227228576176,0.528
508,6.596785061647088,1020,1019.9900982300068,501,-2.0560332116603988,0.529
507,6.433243758544309,1020,1019.9900900133706,502,-1.971162754678553,0.53
508,6.344735740925745,1020,1019.9900818137747,503,-1.8620445500298375,0.531
509,6.14459242097079,1020,1019.990073631296,504,-1.7339262425773945,0.532
511,5.778034145158769,1020,1019.9900654660117,504,-1.5917720656998382,0.533
509,5.510749557389941,1020,1019.9900573179992,503,-1.4397989565784117,0.534
511,5.4447972606858,1020,1019.9900491873353,503,-1.2812040814981571,0.535
516,5.450183882353933,1020,1019.9900410740969,503,-1.1181093738012855,0.536
518,5.347045931303998,1020,1019.9900329783599,503,-0.9517162914954218,0.537
517,5.073117270719665,1020,1019.9900249001997,502,-0.7826355685190042,0.538
519,4.681285078189114,1020,1019.9900168396911,501,-0.6113338443403316,0.539
517,4.210683175051901,1020,1019.9900087969085,500,-0.4386224030634966,0.54
516,3.8194636717227186,1020,1019.990000771926,500,-0.2661051071715949,0.541
514,3.6747399762452964,1020,1019.989992764817,500,-0.09650628927968942,0.542
513,3.6787732790021184,1020,1019.9899847756545,501,0.06618360218159543,0.543
506,3.6355521584965946,1020,1019.9899768045115,502,0.21677862541028892,0.544
507,3.53640436659438,1020,1019.989968851461,502,0.34918433517009156,0.545
504,3.397880880901784,1020,1019.9899609165767,504,0.45686800128217914,0.546
502,3.3968688474515845,1020,1019.9899529999319,504,0.5334516118003618,0.547
500,3.3957516843313966,1020,1019.9899451015993,505,0.5733490800993858,0.548
505,3.393545508970571,1020,1019.9899372216518,505,0.5723617863380582,0.549
510,3.3493006269113534,1020,1019.9899293601615,506,0.528150614712453,0.55
510,3.356903814828422,1020,1019.9899215172007,505,0.44051719726872085,0.551
516,3.4430300593247294,1020,1019.9899136928415,505,0.31145041388895656,0.552
515,3.603950313404025,1020,1019.9899058871555,504,0.14492395456275944,0.553
515,3.655883830896654,1020,1019.9898981002151,503,-0.0535363940393447,0.554
514,3.7150108951361744,1020,1019.9898903320926,502,-0.27746527604772153,0.555
514,3.770445209805095,1020,1019.9898825828603,500,-0.5201730791399581,0.556
512,3.747144320669192,1020,1019.9898748525906,499,-0.7754693975756893,0.557
507,3.7265872943474,1020,1019.9898671413556,498,-1.0382947022066662,0.558
512,3.839232598492572,1020,1019.9898594492273,498,-1.305169790540198,0.559
517,3.940143915580992,1020,1019.9898517762775,499,-1.5743972875231103,0.56
515,4.11814336651076,1020,1019.9898441225777,499,-1.845986176236894,0.561
513,4.174278740373132,1020,1019.9898364881986,500,-2.1213125412782428,0.562
511,4.0525355024694765,1020,1019.9898288732119,501,-2.402569674782147,0.563
512,3.987147124514142,1020,1019.9898212776887,502,-2.692091965391301,0.564
512,3.9645329596401773,1020,1019.9898137017002,502,-2.9916552133896404,0.565
515,3.9987844947727442,1020,1019.9898061453172,502,-3.3018585493209502,0.566
512,4.018725678508415,1020,1019.9897986086106,501,-3.621679404112067,0.567
509,3.9644070297751637,1020,1019.989791091651,500,-3.9482654761784257,0.568
511,3.965789155758142,1020,1019.9897835945088,499,-4.276991735999732,0.569
513,3.959613859034617,1020,1019.9897761172546,498,-4.601772793511613,0.57
515,4.01482363748829,1020,1019.9897686599583,497,-4.915587288211931,0.571
510,3.9646212440237565,1020,1019.9897612226895,496,-5.211145230125163,0.572
515,3.8037427755970405,1020,1019.9897538055178,495,-5.481613270131351,0.573
512,3.6613488892341146,1020,1019.9897464085128,494,-5.721307351440451,0.574
506,3.602249152944228,1020,1019.9897390317441,494,-5.926267293290224,0.575
503,3.7571068058420245,1020,1019.9897316752812,494,-6.094643350694891,0.576
504,4.1207474903573935,1020,1019.9897243391928,494,-6.226849303854706,0.577
505,4.451244187419711,1020,1019.989717023548,495,-6.325467102931512,0.578
505,4.69947778300827,1020,1019.989709728416,496,-6.394920259842895,0.579
504,4.773846541827319,1020,1019.9897024538653,496,-6.440962492125916,0.58
509,4.7664179164063585,1020,1019.9896951999643,497,-6.47005040288984,0.581
512,4.742367491487051,1020,1019.9896879667816,497,-6.488681225234497,0.582
518,4.764482468514476,1020,1019.989680754385,498,-6.502777923411378,0.583
518,4.828331741906678,1020,1019.9896735628425,497,-6.517195029463586,0.584
521,5.084738406474726,1020,1019.9896663922226,497,-6.535401043681708,0.585
519,5.139944447545332,1020,1019.9896592425933,497,-6.559369248614176,0.586
511,5.091790553679156,1020,1019.989652114023,496,-6.589681601071182,0.587
514,5.145865005740842,1020,1019.9896450065797,496,-6.625823440616582,0.588
517,5.240454316183958,1020,1019.9896379203323,494,-6.666622738606605,0.589
519,5.310647172835277,1020,1019.9896308553488,494,-6.710768643156683,0.59
516,5.3815174574945805,1020,1019.9896238116979,493,-6.757332652804961,0.591
510,5.31954085343624,1020,1019.9896167894484,493,-6.806214388719248,0.592
512,5.334662161472284,1020,1019.9896097886689,492,-6.8584437456597644,0.593
515,5.4156051595243975,1020,1019.9896028094284,493,-6.916291249568155,0.594
518,5.477702964415258,1020,1019.9895958517958,494,-6.983166394695734,0.595
515,5.5040747490383835,1020,1019.98958891584,495,-7.063316128900797,0.596
509,5.571775325912767,1020,1019.9895820016299,496,-7.1613673112216185,0.597
507,5.631447164272068,1020,1019.9895751092339,496,-7.281781431507895,0.598
507,5.608639664362689,1020,1019.9895682387208,496,-7.428301995359393,0.599
502,5.688758170721454,1020,1019.9895613901589,496,-7.603473229483709,0.6
491,5.733886016109769,1020,1019.9895545636167,496,-7.808295301391249,0.601
490,5.718589019519147,1020,1019.989547759163,495,-8.042059876276888,0.602
494,5.684327178365178,1020,1019.9895409768659,494,-8.302384062979828,0.603
504,5.725947907581031,1020,1019.9895342167937,494,-8.58543360661669,0.604
508,5.634886149058411,1020,1019.9895274790146,492,-8.886300716275612,0.605
510,5.51088856471602,1020,1019.9895207635963,491,-9.199481319845047,0.606
513,5.504893055050511,1020,1019.9895140706066,490,-9.519383378721296,0.607
519,5.493067839626262,1020,1019.9895074001132,490,-9.840794332608946,0.608
525,5.373909755095568,1020,1019.989500752184,489,-10.159243242654659,0.609
519,5.271900371608361,1020,1019.9894941268861,490,-10.471211120377742,0.61
513,5.186472280760979,1020,1019.9894875242866,490,-10.774168064849697,0.611
515,5.150058473359384,1020,1019.9894809444517,490,-11.066443597590496,0.612
517,5.276299303708668,1020,1019.9894743874482,491,-11.346962330451543,0.613
515,5.323131391789733,1020,1019.9894678533432,491,-11.614896999778882,0.614
516,5.231649733175828,1020,1019.9894613422033,491,-11.869302489244495,0.615
511,5.079308709958273,1020,1019.989454854095,492,-12.108796535265247,0.616
513,5.047438190810432,1020,1019.9894483890847,491,-12.331345113518026,0.617
518,5.043827997611047,1020,1019.9894419472383,490,-12.534193750678304,0.618
516,5.02423295242757,1020,1019.9894355286214,489,-12.713962205812932,0.619
515,5.0072963958943815,1020,1019.9894291332993,489,-12.866893077337753,0.62
518,5.002470133339967,1020,1019.9894227613371,488,-12.98922026907758,0.621
516,5.0268914312888295,1020,1019.9894164127999,487,-13.07760516009933,0.622
510,5.120302166152461,1020,1019.9894100877522,487,-13.12957834581242,0.623
507,5.152860223753527,1020,1019.9894037862581,486,-13.143923066140792,0.624
503,5.207937812836723,1020,1019.9893975083813,487,-13.120943023322507,0.625
505,5.079092026218066,1020,1019.9893912541855,487,-13.06257179465145,0.626
505,4.694538647717826,1020,1019.9893850237339,487,-12.97230144204389,0.627
504,4.320513113988739,1020,1019.9893788170892,487,-12.854930935759844,0.628
509,4.072118195439925,1020,1019.9893726343138,488,-12.716157756875546,0.629
511,3.9536743867793707,1020,1019.9893664754699,490,-12.56205707380635,0.63
509,4.002817408638284,1020,1019.9893603406193,491,-12.398510891481873,0.631
511,4.0789315024323605,1020,1019.989354229824,491,-12.230661196888438,0.632
511,4.123090873943452,1020,1019.9893481431453,491,-12.062461693109684,0.633
513,4.094498606630765,1020,1019.9893420806446,491,-11.896390052801838,0.634
517,3.870396350125767,1020,1019.9893360423838,491,-11.733359424112281,0.635
517,3.727931297638559,1020,1019.9893300284247,491,-11.57283968798061,0.636
518,3.734299554297274,1020,1019.9893240388286,489,-11.413170410477788,0.637
516,3.6585886468682136,1020,1019.9893180736561,489,-11.252021597517441,0.638
513,3.5614438542637514,1020,1019.9893121329677,489,-11.086938249725657,0.639
511,3.510926085737399,1020,1019.9893062168234,489,-10.915893776976612,0.64
515,3.557983003436863,1020,1019.9893003252831,488,-10.737777330112385,0.641
511,3.635681236997953,1020,1019.989294458407,488,-10.552749835917691,0.642
511,3.727896600906153,1020,1019.9892886162551,489,-10.362420805683689,0.643
507,3.6200984663878577,1020,1019.9892827988868,490,-10.169821625603593,0.644
504,3.618964564147668,1020,1019.9892770063619,491,-9.979179330040948,0.645
505,3.6223654679735175,1020,1019.9892712387399,492,-9.795523495321419,0.646
505,3.5306652128006273,1020,1019.9892654960794,492,-9.624182070104911,0.647
505,3.51774784432435,1020,1019.9892597784391,493,-9.470235509118355,0.648
505,3.4979692162006555,1020,1019.9892540858781,493,-9.33800155575118,0.649
508,3.473733361468676,1020,1019.9892484184555,494,-9.23061682293469,0.65
511,3.3295181922177672,1020,1019.9892427762301,494,-9.149767801672441,0.651
513,3.227336548890217,1020,1019.9892371592599,493,-9.095604265325008,0.652
515,3.2069073602817997,1020,1019.9892315676033,492,-9.06684333873677,0.653
512,3.1494393209015334,1020,1019.9892260013183,492,-9.061045438308724,0.654
516,3.286757777861777,1020,1019.9892204604638,491,-9.075018577664828,0.655
516,3.376704819458489,1020,1019.9892149450983,490,-9.10528992941729,0.656
515,3.385677696893148,1020,1019.9892094552805,490,-9.148575595394837,0.657
518,3.383896700409184,1020,1019.9892039910686,490,-9.20218174392047,0.658
513,3.5044019064397696,1020,1019.9891985525209,490,-9.264282024921178,0.659
511,3.6137843850460847,1020,1019.989193139695,490,-9.334035570277779,0.66
512,3.5705797273345365,1020,1019.9891877526487,491,-9.411533615986569,0.661
512,3.4627725175790927,1020,1019.9891823914398,491,-9.49758724909077,0.662
510,3.491888574231201,1020,1019.9891770561256,492,-9.59339088063005,0.663
511,3.645338507434182,1020,1019.9891717467634,492,-9.70011299187841,0.664
504,3.894146421948294,1020,1019.98916646341,492,-9.818475213229501,0.665
508,4.052637740528256,1020,1019.9891612061223,493,-9.948381802410939,0.666
505,4.078521064728583,1020,1019.989155974957,492,-10.088654408975984,0.667
511,4.244291546691555,1020,1019.9891507699712,492,-10.236912764041437,0.668
515,4.334150012856186,1020,1019.9891455912206,491,-10.389622185350746,0.669
515,4.301013609347898,1020,1019.9891404387612,491,-10.542305965039708,0.67
513,4.17255825334542,1020,1019.989135312649,490,-10.689898096924576,0.671
508,4.073972760148344,1020,1019.9891302129398,489,-10.827192428381345,0.672
511,4.076499642522692,1020,1019.9891251396897,488,-10.949330249294936,0.673
515,4.175415176072784,1020,1019.9891200929541,487,-11.052261353725457,0.674
513,4.197523188871024,1020,1019.989115072788,488,-11.133115843984953,0.675
513,4.157080832450907,1020,1019.9891100792464,488,-11.190436700300646,0.676
517,4.273010502917901,1020,1019.9891051123844,489,-11.22424490869103,0.677
506,4.278397919840551,1020,1019.9891001722566,489,-11.235934939292463,0.678
502,4.462275734344438,1020,1019.9890952589175,489,-11.228022711351835,0.679
506,4.555469206206925,1020,1019.9890903724216,490,-11.203786890192278,0.68
508,4.487834706223582,1020,1019.9890855128236,491,-11.166856364175654,0.681
511,4.468535526595948,1020,1019.9890806801785,491,-11.120802229577038,0.682
504,4.4520174930023035,1020,1019.9890758745413,491,-11.06879099798243,0.683
504,4.347774746976746,1020,1019.9890710959666,491,-11.013346054474614,0.684
507,4.436611531540268,1020,1019.9890663445088,491,-10.956247297985941,0.685
512,4.551258004633432,1020,1019.9890616202223,490,-10.898577215959868,0.686
518,4.664274781702593,1020,1019.989056923161,490,-10.840898841114287,0.687
524,4.839510209798875,1020,1019.9890522533786,489,-10.783530126309623,0.688
524,4.8885791170685104,1020,1019.9890476109289,488,-10.726862998505881,0.689
519,4.868940955130202,1020,1019.9890429958649,488,-10.67166629403542,0.69
515,4.781552574551842,1020,1019.9890384082395,488,-10.61931198845126,0.691
519,4.761120487084694,1020,1019.9890338481044,488,-10.571874429616928,0.692
515,4.703458630824563,1020,1019.9890293155112,488,-10.532071411719718,0.693
508,4.718505229611152,1020,1019.9890248105111,489,-10.503040811993571,0.694
511,4.647311883223505,1020,1019.9890203331555,490,-10.48797360454219,0.695
509,4.687337400945482,1020,1019.989015883495,491,-10.489649893254377,0.696
504,4.882547640282809,1020,1019.9890114615795,492,-10.509945137664749,0.697
499,5.075507825509626,1020,1019.9890070674586,492,-10.549384590402266,0.698
503,5.289973204924722,1020,1019.9890027011814,492,-10.606822039438681,0.699
510,5.3663552903883325,1020,1019.9889983627967,492,-10.67930402718847,0.7
516,5.407831967700462,1020,1019.9889940523525,491,-10.762155506666378,0.701
507,5.399487659137762,1020,1019.9889897698962,490,-10.849291799004593,0.702
497,5.322288159399686,1020,1019.9889855154746,489,-10.93372960923309,0.703
504,5.370422685952015,1020,1019.9889812891341,489,-11.008241601628526,0.704
512,5.312461634068363,1020,1019.9889770909211,488,-11.066078833890305,0.705
514,5.396708049683223,1020,1019.9889729208816,487,-11.101675444114953,0.706
514,5.502128632582734,1020,1019.9889687790613,487,-11.111250423839167,0.707
509,5.520624834804802,1020,1019.9889646655059,487,-11.093231414241409,0.708
504,5.428506808101501,1020,1019.9889605802608,487,-11.048444640726661,0.709
504,5.281610767338684,1020,1019.988956523371,488,-10.980041844390353,0.71
504,5.222623548206889,1020,1019.9889524948816,488,-10.893166230989962,0.711
502,5.294212375883641,1020,1019.9889484948379,489,-10.794391124363706,0.712
509,5.308765808744909,1020,1019.9889445232856,491,-10.690993604080047,0.713
511,5.202374641039641,1020,1019.9889405802695,492,-10.590147735486385,0.714
514,5.022607631095263,1020,1019.9889366658348,492,-10.49813454988658,0.715
515,4.9309618082960895,1020,1019.988932780026,492,-10.419665161387229,0.716
515,4.908438852466847,1020,1019.988928922888,492,-10.357398102243312,0.717
514,4.781880496049167,1020,1019.9889250944656,491,-10.311705120804776,0.718
512,4.7933926616353375,1020,1019.9889212948032,491,-10.28070711586183,0.719
518,4.8233086712710245,1020,1019.9889175239449,491,-10.260569174684981,0.72
524,4.848686014885549,1020,1019.9889137819349,490,-10.246014583232506,0.721
526,4.918705411190433,1020,1019.9889100688173,489,-10.23099396726774,0.722
524,4.888904262475687,1020,1019.9889063846362,488,-10.209428236825378,0.723
521,4.683593297848947,1020,1019.9889027294356,487,-10.175934351453321,0.724
516,4.569369835825927,1020,1019.9888991032598,488,-10.126443900998689,0.725
515,4.645627765783242,1020,1019.9888955061523,488,-10.058638101297069,0.726
511,4.720009741427774,1020,1019.9888919381568,488,-9.97214781022984,0.727
506,4.736006566278863,1020,1019.9888883993166,489,-9.86849907091616,0.728
506,4.540725612913226,1020,1019.9888848896743,490,-9.750818170534773,0.729
504,4.533892646881682,1020,1019.9888814092727,492,-9.62334114478966,0.73
504,4.609501566227413,1020,1019.9888779581546,492,-9.490797488237732,0.731
512,4.5807870791528655,1020,1019.9888745363618,492,-9.35775252900826,0.732
510,4.524898759124693,1020,1019.9888711439356,492,-9.227994667407215,0.733
513,4.548012140053554,1020,1019.9888677809171,493,-9.104043412285911,0.734
512,4.431887677132749,1020,1019.9888644473466,493,-8.986836063627836,0.735
517,4.352288860226211,1020,1019.9888611432647,493,-8.875628808368148,0.736
520,4.261918465873212,1020,1019.9888578687118,492,-8.768123256331908,0.737
520,4.149241231184226,1020,1019.9888546237283,492,-8.660802602889774,0.738
516,4.126536413957227,1020,1019.9888514083544,491,-8.549434922827428,0.739
508,4.136731643818645,1020,1019.98884822263,490,-8.429678425084704,0.74
507,4.11699622123964,1020,1019.9888450665948,490,-8.29770850869885,0.741
509,4.131607107817971,1020,1019.9888419402877,489,-8.150781719307036,0.742
505,4.165567126963527,1020,1019.9888388437479,489,-7.987658594990821,0.743
508,4.168589506486178,1020,1019.9888357770145,490,-7.808825928249782,0.744
508,4.222691818157571,1020,1019.9888327401258,491,-7.6164875116784705,0.745
507,4.1313349560890735,1020,1019.9888297331194,493,-7.414327254475962,0.746
505,3.979560659332587,1020,1019.9888267560326,494,-7.207083563457428,0.747
511,3.79180558521183,1020,1019.9888238089028,494,-7.0000017450060525,0.748
511,3.6559606619448366,1020,1019.9888208917672,495,-6.798246169716711,0.749
515,3.569295231997782,1020,1019.9888180046631,495,-6.6063544487825085,0.75
519,3.533954920061506,1020,1019.9888151476274,495,-6.4278043702642895,0.751
514,3.525840616128595,1020,1019.988812320696,495,-6.26474494926113,0.752
506,3.5422922445070224,1020,1019.9888095239047,495,-6.117919342696244,0.753
505,3.4341865900470774,1020,1019.9888067572896,495,-5.98678245319185,0.754
504,3.417159887905152,1020,1019.988804020887,495,-5.869791940038263,0.755
508,3.3348909150492503,1020,1019.9888013147328,493,-5.764829354572284,0.756
509,3.2184483825564247,1020,1019.9887986388625,492,-5.66968942398498,0.757
513,3.203646535145061,1020,1019.9887959933111,492,-5.582562830623462,0.758
511,3.167032759079799,1020,1019.9887933781137,492,-5.502435502937114,0.759
508,3.1735789481108085,1020,1019.9887907933047,492,-5.4293385675791725,0.76
513,3.2104717086982797,1020,1019.9887882389183,493,-5.364406609791077,0.761
514,3.149363433931446,1020,1019.9887857149887,494,-5.309732903615274,0.762
509,3.045540443298785,1020,1019.9887832215499,495,-5.268042867216132,0.763
510,2.959022823412781,1020,1019.9887807586355,496,-5.242235574626753,0.764
510,2.888939228667149,1020,1019.9887783262792,496,-5.234862829904807,0.765
507,2.865473599347672,1020,1019.9887759245147,496,-5.247622927472638,0.766
507,2.944285199369395,1020,1019.9887735533747,496,-5.28094154002725,0.767
513,3.0158062283450446,1020,1019.988771212891,496,-5.333697802822002,0.768
515,2.9145261129457167,1020,1019.9887689030955,496,-5.403133470038747,0.769
512,2.876751245491912,1020,1019.9887666240196,496,-5.484960129753666,0.77
516,2.942512502581076,1020,1019.988764375695,495,-5.5736554348751985,0.771
515,3.1390384822209403,1020,1019.9887621581532,493,-5.6629150165284,0.772
517,3.2302685124055195,1020,1019.9887599714251,492,-5.746204226783492,0.773
515,3.334499115503216,1020,1019.9887578155416,492,-5.8173374771656965,0.774
511,3.4297715521119834,1020,1019.9887556905327,492,-5.871007983145043,0.775
513,3.403163576075791,1020,1019.9887535964275,492,-5.903199680666687,0.776
515,3.2694293898933364,1020,1019.9887515332551,492,-5.9114335172659755,0.777
510,3.306546075384427,1020,1019.9887495010447,493,-5.894826948212335,0.778
507,3.3795782316347744,1020,1019.9887474998258,494,-5.8539735022243375,0.779
507,3.4596110932099218,1020,1019.9887455296274,495,-5.79067515642005,0.78
510,3.514280585841357,1020,1019.9887435904783,495,-5.707580402383283,0.781
512,3.5774921186049498,1020,1019.9887416824066,496,-5.607791771298368,0.782
512,3.651401540329913,1020,1019.9887398054401,496,-5.494506444764385,0.783
513,3.737137068905355,1020,1019.988737959606,496,-5.3707432044839,0.784
514,3.8031180660402883,1020,1019.9887361449308,495,-5.239190775644351,0.785
514,3.7670201630016287,1020,1019.9887343614408,495,-5.102189771652298,0.786
515,3.781823336258677,1020,1019.988732609162,495,-4.961836933323492,0.787
516,4.000396260267793,1020,1019.9887308881197,494,-4.820180291796051,0.788
510,4.279566131787649,1020,1019.9887291983381,494,-4.679459980004572,0.789
515,4.4092548901217175,1020,1019.9887275398409,494,-4.542342606848468,0.79
519,4.420077115045288,1020,1019.9887259126511,494,-4.412097543989274,0.791
518,4.350939317169387,1020,1019.9887243167917,493,-4.292670879576773,0.792
511,4.333203105934374,1020,1019.9887227522848,494,-4.188626222048732,0.793
510,4.470158344207009,1020,1019.9887212191524,495,-4.104939849321521,0.794
506,4.457427636509412,1020,1019.9887197174156,495,-4.046659555397313,0.795
497,4.460595952391718,1020,1019.9887182470956,496,-4.018459180618984,0.796
502,4.415426084994335,1020,1019.9887168082126,497,-4.0241400382068955,0.797
505,4.475102238664404,1020,1019.9887154007864,497,-4.066142620354733,0.798
505,4.5318967579022305,1020,1019.988714024836,497,-4.14513510797871,0.799
507,4.508448786294309,1020,1019.9887126803804,497,-4.259738803304444,0.8
514,4.563339381719696,1020,1019.9887113674384,497,-4.406435729431772,0.801
515,4.637398038573947,1020,1019.9887100860286,496,-4.579682858312566,0.802
518,4.675102859155994,1020,1019.9887088361692,496,-4.77223362422959,0.803
519,4.6641621712258825,1020,1019.9887076178787,495,-4.975643011808182,0.804
519,4.636419986710405,1020,1019.9887064311755,494,-5.180909853992143,0.805
515,4.675204384042552,1020,1019.9887052760772,493,-5.379191323822193,0.806
515,4.668289046892198,1020,1019.9887041526007,492,-5.5625122600045565,0.807
516,4.716831769640747,1020,1019.9887030607614,491,-5.72438831437279,0.808
515,4.838032104168803,1020,1019.9887020005752,491,-5.86028899436884,0.809
510,4.849376453348079,1020,1019.9887009720577,492,-5.9678852485116645,0.81
507,4.938544191524203,1020,1019.9886999752238,493,-6.04705469695705,0.811
495,4.96867874104152,1020,1019.9886990100885,493,-6.099651255391706,0.812
495,4.9085979089383915,1020,1019.9886980766663,494,-6.129077915175225,0.813
502,4.864819378000433,1020,1019.988697174971,495,-6.1397258091918605,0.814
509,4.852661607211076,1020,1019.9886963050157,495,-6.13635643604409,0.815
510,4.8636848243713695,1020,1019.988695466813,495,-6.123506506821806,0.816
507,4.810467990543165,1020,1019.9886946603755,495,-6.104986930267667,0.817
501,4.7926652923975785,1020,1019.9886938857152,495,-6.083530872904745,0.818
508,4.871074069840106,1020,1019.9886931428445,494,-6.060623926752343,0.819
511,4.946691394183182,1020,1019.9886924317756,495,-6.036525701179731,0.82
509,5.029330349841799,1020,1019.9886917525208,494,-6.010469278290631,0.821
517,4.8528548779969265,1020,1019.988691105092,493,-5.981004543911574,0.822
518,4.719973548761221,1020,1019.9886904895005,493,-5.946434415874561,0.823
513,4.614884695917481,1020,1019.9886899057568,492,-5.905280807190998,0.824
515,4.513872270089205,1020,1019.9886893538713,492,-5.856711950629205,0.825
516,4.468289309153096,1020,1019.9886888338541,491,-5.800866260659733,0.826
515,4.49247372985165,1020,1019.9886883457142,492,-5.739020564343773,0.827
513,4.454826875665551,1020,1019.9886878894603,492,-5.673571427632818,0.828
515,4.396460012784931,1020,1019.988687465101,494,-5.607825414011913,0.829
519,4.276574061736221,1020,1019.9886870726444,494,-5.54562361349491,0.83
513,4.126979318060347,1020,1019.9886867120985,495,-5.490852289235661,0.831
509,4.025776238276929,1020,1019.9886863834703,496,-5.446909902614854,0.832
505,4.008844587299754,1020,1019.9886860867672,496,-5.416208166081572,0.833
513,3.947449275283293,1020,1019.9886858219965,496,-5.399780627331167,0.834
518,3.9144646062548403,1020,1019.9886855891644,496,-5.3970577029049345,0.835
515,3.974239965085989,1020,1019.9886853882775,496,-5.4058443999518575,0.836
512,3.921483831700634,1020,1019.9886852193412,495,-5.422509494924577,0.837
511,3.679165915767999,1020,1019.9886850823603,494,-5.442366056666324,0.838
511,3.3790804075324745,1020,1019.9886849773405,493,-5.460196129804464,0.839
509,3.2531565953430115,1020,1019.9886849042863,492,-5.470850900151761,0.84
507,3.241034753006995,1020,1019.9886848632008,492,-5.469845880497364,0.841
507,3.271192753437558,1020,1019.9886848540872,492,-5.4538714295427635,0.842
508,3.308754234035455,1020,1019.9886848769487,492,-5.421152274340836,0.843
507,3.273116819317179,1020,1019.988684931788,493,-5.371612791967217,0.844
503,3.360262845196014,1020,1019.9886850186075,494,-5.306833122492768,0.845
507,3.4201868771497517,1020,1019.9886851374089,494,-5.229809896287736,0.846
510,3.4553388492783816,1020,1019.9886852881931,495,-5.144560001494823,0.847
512,3.4013627441205965,1020,1019.9886854709606,495,-5.055623128623004,0.848
514,3.32551050460758,1020,1019.988685685711,496,-4.967527621540666,0.849
511,3.3589920692736257,1020,1019.9886859324432,496,-4.884284963694993,0.85
517,3.398238279658737,1020,1019.988686211156,496,-4.8089719678115515,0.851
515,3.601532444712104,1020,1019.9886865218476,496,-4.743447273932294,0.852
517,3.924439873664842,1020,1019.9886868645152,496,-4.688231456781562,0.853
515,4.31158426247994,1020,1019.9886872391561,496,-4.64255999897128,0.854
512,4.482013996211658,1020,1019.9886876457666,495,-4.604597734754459,0.855
512,4.451926983412581,1020,1019.9886880843427,495,-4.571783751983149,0.856
516,4.4127136644590745,1020,1019.9886885548798,494,-4.541258784784976,0.857
515,4.440418917059161,1020,1019.9886890573729,493,-4.5103149828385005,0.858
515,4.40773453501211,1020,1019.988689591817,492,-4.476803037511467,0.859
515,4.39656881999137,1020,1019.9886901582066,493,-4.439436283255578,0.86
511,4.2867866235923335,1020,1019.9886907565364,494,-4.397947033943084,0.861
509,4.295631909200034,1020,1019.9886913868003,494,-4.353075846882566,0.862
511,4.291638066970529,1020,1019.9886920489924,496,-4.306404519808951,0.863
510,4.308577895226839,1020,1019.9886927431065,497,-4.260071242749442,0.864
512,4.482843765556838,1020,1019.9886934691357,497,-4.216425346382134,0.865
513,4.654874531189232,1020,1019.9886942270722,497,-4.177685799353821,0.866
516,4.700904221586106,1020,1019.9886950169083,496,-4.145661108458065,0.867
518,4.6086409672854804,1020,1019.9886958386363,496,-4.12157135554367,0.868
517,4.540688505869532,1020,1019.988696692248,496,-4.105991574636482,0.869
515,4.449212249145904,1020,1019.9886975777343,496,-4.098915283775949,0.87
513,4.319016470964403,1020,1019.9886984950857,495,-4.099920645457525,0.871
515,4.312351476295586,1020,1019.9886994442926,495,-4.108409547117882,0.872
513,4.319713015101479,1020,1019.9887004253454,495,-4.123881415639129,0.873
515,4.33117323242502,1020,1019.9887014382347,494,-4.146199266531595,0.874
503,4.325601900893158,1020,1019.9887024829508,494,-4.175806068598639,0.875
496,4.399476259895961,1020,1019.9887035594837,494,-4.213855155209499,0.876
489,4.394431917539382,1020,1019.9887046678231,494,-4.262228989832146,0.877
490,4.438499461486422,1020,1019.9887058079584,494,-4.323435569017861,0.878
497,4.49268975123868,1020,1019.9887069798787,495,-4.400389619903774,0.879
505,4.479937230744452,1020,1019.9887081835735,496,-4.49610410613989,0.88
510,4.483369384342828,1020,1019.9887094190316,496,-4.613333364700421,0.881
515,4.528622714695759,1020,1019.9887106862415,496,-4.754218937531679,0.882
515,4.478234827153551,1020,1019.9887119851913,496,-4.919990019283114,0.883
511,4.432536548380183,1020,1019.9887133158685,496,-5.110762133380135,0.884
512,4.381624662933174,1020,1019.9887146782602,495,-5.32546243200583,0.885
514,4.318350300316196,1020,1019.9887160723537,494,-5.561890926724839,0.886
511,4.311276078650894,1020,1019.9887174981358,494,-5.816906922386362,0.887
513,4.28560084298221,1020,1019.9887189555928,493,-6.086712055429707,0.888
521,4.288945583197655,1020,1019.9887204447112,492,-6.36718838673942,0.889
523,4.2695173807153335,1020,1019.9887219654769,492,-6.654243320009259,0.89
519,4.31255656492961,1020,1019.9887235178752,491,-6.944112892491178,0.891
512,4.471988894797409,1020,1019.9887251018912,491,-7.23358105979277,0.892
511,4.580812996541256,1020,1019.9887267175094,490,-7.520084421351503,0.893
511,4.56086170993693,1020,1019.9887283647143,491,-7.801688295002831,0.894
509,4.43606064903027,1020,1019.9887300434897,491,-8.076939707171606,0.895
507,4.398610346221897,1020,1019.988731753819,492,-8.344623602690948,0.896
509,4.442570469506793,1020,1019.988733495686,492,-8.6034669622305,0.897
511,4.388214513770483,1020,1019.9887352690738,492,-8.851847455338426,0.898
513,4.447029656072997,1020,1019.9887370739656,492,-9.087565899982842,0.899
516,4.463416499665587,1020,1019.9887389103436,492,-9.307734833488862,0.9
516,4.346993397113487,1020,1019.9887407781897,492,-9.508820688577769,0.901
517,4.0579484880533165,1020,1019.9887426774848,491,-9.686856720623286,0.902
519,3.6615277226471368,1020,1019.9887446082092,491,-9.837819915812657,0.903
514,3.2724710562162294,1020,1019.9887465703431,489,-9.95813971574219,0.904
513,3.024135176791666,1020,1019.9887485638659,489,-10.04528249289461,0.905
508,3.023181017478959,1020,1019.9887505887567,487,-10.098337081110463,0.906
511,3.1002804532935166,1020,1019.9887526449942,487,-10.118517103787967,0.907
512,3.07118608132704,1020,1019.9887547325569,487,-10.109498199715336,0.908
512,2.981362095838994,1020,1019.9887568514231,487,-10.077523452134717,0.909
511,3.0524879567088177,1020,1019.9887590015713,487,-10.031236717611835,0.91
511,3.1074240547057004,1020,1019.9887611829798,489,-9.981237262062889,0.911
511,3.2353119615651162,1020,1019.9887633956267,489,-9.939385412370294,0.912
512,3.4686761188992214,1020,1019.9887656394898,491,-9.917922986459933,0.913
510,3.5747039062528723,1020,1019.9887679145457,492,-9.928499067578311,0.914
508,3.4829015990315675,1020,1019.9887702207715,492,-9.981206599635401,0.915
500,3.3085372289132473,1020,1019.9887725581428,492,-10.083735267718625,0.916
500,3.2023074902323803,1020,1019.9887749266353,491,-10.240730953641332,0.917
504,3.230781152150753,1020,1019.9887773262243,491,-10.453424932430478,0.918
510,3.2731409753414233,1020,1019.9887797568844,490,-10.71956262711241,0.919
508,3.403342989558227,1020,1019.98878221859,489,-11.033627882078273,0.92
505,3.5441508447448866,1020,1019.9887847113158,488,-11.387328246267924,0.921
509,3.6098391531263325,1020,1019.9887872350358,487,-11.770282069229948,0.922
517,3.7115045153164616,1020,1019.9887897897241,486,-12.170831224392447,0.923
515,3.7031552629378877,1020,1019.9887923753548,486,-12.576895462377355,0.924
510,3.698915056703336,1020,1019.9887949919015,485,-12.976786067705827,0.925
511,3.62335164046678,1020,1019.9887976393373,484,-13.359906452719155,0.926
510,3.6561755189192313,1020,1019.9888003176355,484,-13.717283613288473,0.927
512,3.6831970380888266,1020,1019.9888030267692,484,-14.041895514270509,0.928
511,3.6942147502407616,1020,1019.9888057667112,485,-14.328784536527865,0.929
505,3.7403475080481714,1020,1019.9888085374336,486,-14.574974065868009,0.93
507,3.751661288037901,1020,1019.9888113389082,486,-14.779229817136944,0.931
508,3.8102166079696596,1020,1019.9888141711066,486,-14.941724190364706,0.932
511,3.876500874534649,1020,1019.9888170339999,486,-15.063667241684932,0.933
515,3.886641295619146,1020,1019.9888199275591,486,-15.146961804910408,0.934
515,3.903811450815102,1020,1019.9888228517547,485,-15.193926029191246,0.935
521,3.913446567504028,1020,1019.9888258065565,485,-15.207108028759132,0.936
523,4.053553702532775,1020,1019.9888287919347,485,-15.189197941563272,0.937
519,4.182880099351758,1020,1019.9888318078587,485,-15.14302526957889,0.938
516,4.275205010380303,1020,1019.9888348542976,484,-15.071615513074143,0.939
515,4.307526126485258,1020,1019.9888379312205,483,-14.978270054134855,0.94
513,4.281335032568488,1020,1019.9888410385955,483,-14.86662746036881,0.941
510,4.0970197057183935,1020,1019.9888441763904,484,-14.740664908165135,0.942
508,3.892931900765198,1020,1019.9888473445725,483,-14.6046073378885,0.943
505,3.852913376686904,1020,1019.9888505431085,484,-14.462728641676094,0.944
501,3.9877057385207206,1020,1019.9888537719647,485,-14.319050415927231,0.945
504,4.031549899828377,1020,1019.9888570311072,486,-14.176966031814496,0.946
503,3.983231437060884,1020,1019.9888603205007,487,-14.038837778258056,0.947
512,3.9692910857828503,1020,1019.9888636401105,488,-13.905628829342962,0.948
512,3.875061230961094,1020,1019.9888669899009,488,-13.776635981005166,0.949
512,3.7927509291378367,1020,1019.9888703698365,488,-13.649381521320551,0.95
517,3.790591165240162,1020,1019.9888737798809,488,-13.519704073623862,0.951
518,3.7914995697182743,1020,1019.9888772199973,487,-13.382062070856495,0.952
519,3.870068792488442,1020,1019.9888806901484,487,-13.23003432087668,0.953
516,4.010115991341587,1020,1019.9888841902965,487,-13.056974539894426,0.954
513,4.157107647211066,1020,1019.9888877204038,486,-12.856754333271113,0.955
505,4.074278352472145,1020,1019.9888912804316,485,-12.624513919775628,0.956
507,4.022512591877427,1020,1019.9888948703409,485,-12.357333061790573,0.957
509,4.010398670320323,1020,1019.9888984900921,485,-12.054737703660955,0.958
512,4.154699078265215,1020,1019.9889021396451,485,-11.71897239430691,0.959
510,4.21869365764374,1020,1019.98890581896,487,-11.35499451435554,0.96
503,4.1650984891358345,1020,1019.9889095279958,488,-10.970180572734675,0.961
504,3.9904338056361457,1020,1019.9889132667112,489,-10.573772037917289,0.962
505,3.7960903713090395,1020,1019.9889170350642,491,-10.176121990139404,0.963
513,3.6737541819571957,1020,1019.9889208330122,492,-9.787828700890415,0.964
512,3.612567569878612,1020,1019.9889246605129,492,-9.418854564231912,0.965
512,3.558755397442435,1020,1019.9889285175235,493,-9.077727473017678,0.966
511,3.596311752212705,1020,1019.9889324040008,493,-8.770907889812527,0.967
515,3.6875363423968555,1020,1019.9889363199017,493,-8.502381744717288,0.968
518,3.726325743969199,1020,1019.9889402651833,492,-8.273510994936334,0.969
515,3.6787398887158815,1020,1019.9889442398024,493,-8.083143976997365,0.97
514,3.497141588077032,1020,1019.988948243716,492,-7.927959969686656,0.971
511,3.3525952060069852,1020,1019.9889522768807,492,-7.802999346828,0.972
513,3.2489266447081295,1020,1019.9889563392529,491,-7.702313559344622,0.973
511,3.2890536197915132,1020,1019.988960430789,491,-7.6196583263484285,0.974
511,3.3159794791049095,1020,1019.9889645514453,490,-7.549149688320785,0.975
511,3.331467062780185,1020,1019.9889687011786,490,-7.4858072661006805,0.976
507,3.2817874261577797,1020,1019.9889728799452,490,-7.4259229029633556,0.977
502,3.213878555954282,1020,1019.9889770877002,491,-7.367215424716564,0.978
504,3.0866010644905097,1020,1019.988981324398,492,-7.308761559650704,0.979
509,2.997731376373829,1020,1019.9889855899927,493,-7.250725117878549,0.98
513,3.091181222383452,1020,1019.9889898844375,494,-7.193935734967946,0.981
513,3.0728507039953983,1020,1019.9889942076856,494,-7.139389346135131,0.982
519,3.0941229469093017,1020,1019.98899855969,495,-7.087751644954225,0.983
518,3.1351422407492153,1020,1019.9890029404036,495,-7.038942554477141,0.984
513,3.1208868551291027,1020,1019.989007349779,495,-6.99186583961927,0.985
512,3.099124985266146,1020,1019.9890117877684,495,-6.944325878656811,0.986
514,3.008862607811429,1020,1019.9890162543242,494,-6.893145913811103,0.987
510,2.9214920886146127,1020,1019.9890207493985,493,-6.834471891212353,0.988
510,2.8300767656656216,1020,1019.9890252729432,492,-6.764217207753528,0.989
511,2.853257817949973,1020,1019.9890298249096,492,-6.678580960870829,0.99
508,2.8282816545802256,1020,1019.9890344052486,491,-6.574559955519871,0.991
505,2.85918803690347,1020,1019.9890390139107,491,-6.450375063452536,0.992
507,2.8729761819087245,1020,1019.9890436508457,491,-6.305745252811715,0.993
507,2.843808667213034,1020,1019.9890483160037,492,-6.141965800953571,0.994
511,2.7413188654259724,1020,1019.9890530093338,494,-5.961778054930101,0.995
511,2.70971103415699,1020,1019.9890577307846,495,-5.7690521897175895,0.996
509,2.6620064562434496,1020,1019.9890624803037,496,-5.568335243466765,0.997
514,2.776638392013347,1020,1019.9890672578384,496,-5.364337442309058,0.998
514,2.8466406406747855,1020,1019.9890720633351,497,-5.1614364642924695,0.999
513,2.8973933001871552,1020,1019.9890768967401,497,-4.963272322453808,1.0
515,2.90237752093807,1020,1019.9890817579989,497,-4.772488414370033,1.001
515,2.9862100604973247,1020,1019.9890866470568,497,-4.590650725896684,1.002
513,3.0080495631187705,1020,1019.9890915638583,496,-4.418350261692627,1.003
512,2.891730818050923,1020,1019.9890965083481,496,-4.255466545893849,1.004
518,2.8071574966370774,1020,1019.9891014804701,495,-4.101545907895024,1.005
516,2.9291290644426673,1020,1019.9891064801685,495,-3.9562305527834285,1.006
517,3.0298506062609967,1020,1019.9891115073868,494,-3.8196655528767,1.007
515,3.1245377882368945,1020,1019.9891165620687,494,-3.6928120948381027,1.008
511,3.1065057057759433,1020,1019.9891216441578,494,-3.5776067853912963,1.009
511,2.9773500686725614,1020,1019.9891267535976,495,-3.47692794108444,1.01
508,3.0249192003538083,1020,1019.9891318903314,496,-3.3943585913001013,1.011
508,3.073731053984342,1020,1019.9891370543018,497,-3.3337683792408663,1.012
510,3.11917857155203,1020,1019.9891422454515,498,-3.2987669312036045,1.013
508,3.1572415418166084,1020,1019.9891474637228,499,-3.2921038313616116,1.014
511,3.1837661574971805,1020,1019.9891527090575,499,-3.315101039041573,1.015
513,3.3366668382886107,1020,1019.9891579813974,499,-3.367200795889908,1.016
509,3.37695611728626,1020,1019.9891632806838,499,-3.445696610143937,1.017
508,3.2670276000253997,1020,1019.9891686068571,498,-3.545689748521266,1.018
508,3.1808445035140567,1020,1019.9891739598569,497,-3.6602831231698345,1.019
513,3.1102475202222406,1020,1019.9891793396226,496,-3.780993239039175,1.02
511,3.158046995458307,1020,1019.9891847460934,496,-3.898333659988673,1.021
504,3.168746712515524,1020,1019.9891901792083,495,-4.002504296352217,1.022
505,3.1289955761194914,1020,1019.9891956389059,495,-4.084111745281031,1.023
507,3.1552614346477297,1020,1019.9892011251249,494,-4.134846497060505,1.024
511,3.235968027622351,1020,1019.9892066378032,494,-4.148051525266272,1.025
515,3.3179138818884533,1020,1019.9892121768788,495,-4.119132454927774,1.026
516,3.379949421037304,1020,1019.9892177422893,496,-4.0457810876271,1.027
513,3.4171030073377886,1020,1019.9892233339718,496,-3.9280089901299897,1.028
507,3.417503967002349,1020,1019.9892289518633,497,-3.7680115804141594,1.029
503,3.4751734636411684,1020,1019.9892345959,498,-3.5699011431772547,1.03
504,3.414442228919976,1020,1019.9892402660174,499,-3.3393571269287894,1.031
504,3.4096050094499843,1020,1019.9892459621509,499,-3.0832433190286253,1.032
504,3.449569062743797,1020,1019.9892516842355,499,-2.8092337839856403,1.033
512,3.482181865211506,1020,1019.9892574322051,498,-2.5254733826593965,1.034
514,3.547972409999284,1020,1019.9892632059931,498,-2.2402773567061756,1.035
515,3.577866247543351,1020,1019.989269005532,498,-1.9618532340349342,1.036
515,3.5369817585082015,1020,1019.9892748307542,497,-1.6980125053552484,1.037
515,3.529994176666662,1020,1019.9892806815918,497,-1.4558322546760287,1.038
514,3.5617576540550897,1020,1019.9892865579772,497,-1.2412290885128323,1.039
520,3.512981855332426,1020,1019.989292459842,497,-1.0584192507525518,1.04
517,3.6113762590959513,1020,1019.9892983871176,497,-0.9092591028178079,1.041
513,3.5971556230878377,1020,1019.989304339735,497,-0.792487528511941,1.042
512,3.6043636880763583,1020,1019.9893103176249,498,-0.7029239733733172,1.043
513,3.5639922930265424,1020,1019.9893163207183,500,-0.6307104076547476,1.044
515,3.7248941684817796,1020,1019.9893223489456,503,-0.5607192562134161,1.045
513,3.9983966264624007,1020,1019.9893284022363,505,-0.4722762351991919,1.046
511,4.15246780108184,1020,1019.9893344805199,507,-0.3393580075949358,1.047
508,4.045360723781706,1020,1019.9893405837255,507,-0.13141045336660426,1.048
506,4.047406290742083,1020,1019.9893467117821,507,0.1851105303500523,1.049
506,4.143992019368471,1020,1019.9893528646188,506,0.6444447549519443,1.05
506,4.297843440252676,1020,1019.9893590421647,505,1.2785377954567987,1.051
506,4.281294565721287,1020,1019.9893652443483,503,2.1135069688831676,1.052
511,4.174226197940351,1020,1019.9893714710983,503,3.165800837803266,1.053
515,4.203798275108079,1020,1019.9893777223423,502,4.438357220887466,1.054
515,4.251099132720867,1020,1019.9893839980076,500,5.917105742429984,1.055
516,4.18346532099887,1020,1019.9893902980215,500,7.568171254761638,1.056
519,4.130513887658033,1020,1019.9893966223102,501,9.336111417325304,1.057
517,4.0400943068169815,1020,1019.9894029707997,504,11.143463742557397,1.058
515,3.9992056392147597,1020,1019.9894093434153,507,12.89178664005321,1.059
513,4.11308970920958,1020,1019.9894157400821,510,14.464264414471309,1.06
510,4.08658513298746,1020,1019.989422160725,513,15.729822304186113,1.061
509,4.124580710566946,1020,1019.9894286052685,515,16.548579140752626,1.062
513,4.137890834420725,1020,1019.9894350736366,517,16.778362555795976,1.063
512,4.20029897822127,1020,1019.9894415657535,518,16.281930502157774,1.064
505,4.393231651907778,1020,1019.9894480815436,519,14.934485662268544,1.065
510,4.419708237308244,1020,1019.989454620932,519,12.631037487704857,1.066
512,4.311093341078721,1020,1019.9894611838434,516,9.293161897876839,1.067
512,4.297457123741499,1020,1019.9894677702026,512,4.874732954220531,1.068
500,4.290714113103723,1020,1019.989474379934,507,-0.6337460347008456,1.069
495,4.372867357679707,1020,1019.9894810129621,501,-7.202506718238961,1.07
502,4.566564187114841,1020,1019.9894876692114,493,-14.761774485783425,1.071
512,4.965602889702765,1020,1019.989494348606,484,-23.203014420670588,1.072
516,5.268078280004654,1020,1019.9895010510694,475,-32.382143828402846,1.073
519,5.362019828690582,1020,1019.9895077765253,463,-42.124575267130794,1.074
519,5.320853298093888,1020,1019.9895145248969,450,-52.23184118028003,1.075
515,5.281660200462804,1020,1019.9895212961063,436,-62.489447310332814,1.076
511,5.302360549643135,1020,1019.9895280900754,424,-72.67551599916062,1.077
507,5.320428158500554,1020,1019.9895349067255,412,-82.56972360827852,1.078
505,5.386847501722543,1020,1019.9895417459774,401,-91.96201820686169,1.079
507,5.41671612163238,1020,1019.989548607752,392,-100.66062755587615,1.08
507,5.4869947574410505,1020,1019.9895554919698,385,-108.49892959661213,1.081
509,5.493247849752346,1020,1019.9895623985507,377,-115.34085025806385,1.082
515,5.423030667827269,1020,1019.9895693274146,374,-121.08456659918168,1.083
518,5.368311838073506,1020,1019.9895762784816,373,-125.66441669591543,1.084
513,5.295427456057737,1020,1019.9895832516712,372,-129.05104058798943,1.085
517,5.287458403157534,1020,1019.9895902469028,371,-131.24988681046815,1.086
516,5.30627987145986,1020,1019.9895972640951,371,-132.29830369644353,1.087
518,5.334414009618064,1020,1019.9896043031662,371,-132.26148567062145,1.088
524,5.346984889544987,1020,1019.9896113640337,371,-131.22756318945918,1.089
521,5.344848634858246,1020,1019.989618446615,372,-129.3021191635502,1.09
511,5.295606164331815,1020,1019.9896255508269,374,-126.60239565891928,1.091
511,5.355562007357742,1020,1019.989632676586,377,-123.25143291868525,1.092
512,5.358829529171192,1020,1019.9896398238092,381,-119.37236602606221,1.093
506,5.367445758105118,1020,1019.9896469924132,387,-115.08309607198082,1.094
499,5.215969080853837,1020,1019.989654182314,394,-110.49155071403537,1.095
490,4.894209048040645,1020,1019.9896613934274,401,-105.69174723466537,1.096
496,4.752622891378122,1020,1019.9896686256687,408,-100.76085992812781,1.097
503,4.745773637473001,1020,1019.9896758789531,414,-95.75746234889924,1.098
508,4.664493612750392,1020,1019.9896831531954,417,-90.72105636998837,1.099
515,4.612017932193915,1020,1019.9896904483106,420,-85.67291380754952,1.1
519,4.492863073791961,1020,1019.9896977642132,422,-80.61815095738704,1.101
518,4.478153399067803,1020,1019.9897051008178,424,-75.54884760206922,1.102
516,4.619269092973382,1020,1019.9897124580388,427,-70.44792842655815,1.103
517,4.601631412018177,1020,1019.9897198357902,431,-65.29346155421626,1.104
518,4.511725664388794,1020,1019.9897272339857,435,-60.063004146577995,1.105
517,4.4908823144715155,1020,1019.989734652538,440,-54.737638968919974,1.106
515,4.500769816438016,1020,1019.9897420913597,446,-49.30539287352115,1.107
515,4.536680641681968,1020,1019.9897495503632,452,-43.76379978968589,1.108
511,4.4671300613920915,1020,1019.9897570294601,459,-38.121457836920555,1.109
511,4.433150007014794,1020,1019.9897645285613,466,-32.39852342092313,1.11
509,4.465360740570096,1020,1019.9897720475773,473,-26.62617597237475,1.111
508,4.510657481915918,1020,1019.9897795864184,480,-20.845168006581403,1.112
508,4.487103128913683,1020,1019.9897871449947,488,-15.103640995689153,1.113
512,4.374313954542249,1020,1019.9897947232156,495,-9.45443458281869,1.114
514,4.157737747258095,1020,1019.9898023209906,502,-3.9521423741878943,1.115
516,4.111578598127553,1020,1019.9898099382293,507,1.3498302031243867,1.116
513,4.365225687918332,1020,1019.9898175748402,512,6.401972305706438,1.117
512,4.533132155861923,1020,1019.9898252307315,516,11.160947663093452,1.118
514,4.614115832713436,1020,1019.9898329058104,519,15.591314834632886,1.119
511,4.539118298677942,1020,1019.9898405999842,524,19.66661736671013,1.12
510,4.3471532897729945,1020,1019.9898483131595,526,23.36983415677154,1.121
511,3.995424263015532,1020,1019.9898560452428,528,26.693233787713982,1.122
510,4.0275683312251,1020,1019.98986379614,530,29.637720625959144,1.123
505,4.1556826512143985,1020,1019.9898715657563,531,32.21179325839158,1.124
509,4.332764639484063,1020,1019.9898793539968,534,34.43025441878708,1.125
507,4.453910815971708,1020,1019.9898871607664,535,36.312813471058924,1.126
504,4.454998802129972,1020,1019.9898949859702,536,37.88270835674244,1.127
507,4.436270215667989,1020,1019.9899028295125,539,39.16544723890352,1.128
510,4.3571534817334445,1020,1019.989910691298,541,40.18773537558519,1.129
507,4.351521594167589,1020,1019.989918571231,543,40.97661476693779,1.13
507,4.360748595631474,1020,1019.9899264692161,544,41.55880884705621,1.131
506,4.401783341685658,1020,1019.989934385157,545,41.96023849316728,1.132
512,4.54237005061784,1020,1019.9899423189567,545,42.20566290419896,1.133
515,4.666106040746639,1020,1019.9899502705183,545,42.31839917282975,1.134
515,4.781787211166942,1020,1019.9899582397455,545,42.320084301493395,1.135
518,4.759623161183073,1020,1019.9899662265419,544,42.23045868409807,1.136
515,4.743885736211291,1020,1019.9899742308111,544,42.06716674348055,1.137
510,4.682318533425764,1020,1019.9899822524566,543,41.84558540787703,1.138
513,4.704227561685345,1020,1019.989990291382,542,41.578702217332314,1.139
518,4.7023614638036415,1020,1019.9899983474915,542,41.27707053121618,1.14
524,4.644032407391778,1020,1019.9900064206885,541,40.94886855271019,1.141
520,4.676059556237479,1020,1019.9900145108771,541,40.60008137745555,1.142
515,4.7366888029678,1020,1019.990022617961,541,40.23481177234362,1.143
513,4.755414568594153,1020,1019.9900307418442,541,39.85570776645832,1.144
514,4.763208243503801,1020,1019.9900388824311,542,39.46447603880214,1.145
508,4.758328695765871,1020,1019.9900470396268,542,39.062432784355664,1.146
493,4.77400597051007,1020,1019.9900552133357,542,38.65103188907212,1.147
497,4.827064009082304,1020,1019.9900634034624,542,38.23230701231841,1.148
498,4.822059368161301,1020,1019.9900716099113,541,37.80917094225613,1.149
502,4.761010783523302,1020,1019.9900798325865,541,37.385531302354536,1.15
504,4.836917455177795,1020,1019.990088071392,540,36.9662035090415,1.151
506,4.859332918220692,1020,1019.990096326232,539,36.55662649180907,1.152
512,4.7177648641009915,1020,1019.9901045970095,538,36.16241111575409,1.153
516,4.680935420492059,1020,1019.9901128836281,537,35.788772815715674,1.154
519,4.788702556646502,1020,1019.9901211859909,536,35.43991599212966,1.155
518,5.077638154481164,1020,1019.9901295040012,536,35.11844593199661,1.156
523,5.222750645701258,1020,1019.9901378375615,535,34.82488330752394,1.157
520,5.213553334483983,1020,1019.9901461865746,535,34.55734720025472,1.158
518,5.241904500541322,1020,1019.9901545509427,534,34.31145679929696,1.159
511,5.168927554761179,1020,1019.9901629305676,534,34.080481195866476,1.16
511,5.130538577485476,1020,1019.9901713253515,535,33.855742133914404,1.161
512,5.036059664349011,1020,1019.9901797351962,535,33.62724720546554,1.162
508,5.079708013280523,1020,1019.9901881600034,536,33.38450319709756,1.163
511,5.159423008794062,1020,1019.990196599675,536,33.117435178566,1.164
512,5.142884592561019,1020,1019.9902050541126,536,32.81732059370118,1.165
505,5.071346231663573,1020,1019.9902135232177,537,32.47764134142843,1.166
507,4.912162851859475,1020,1019.9902220068915,537,32.09476086749973,1.167
513,4.805506382204956,1020,1019.9902305050358,537,31.66834718384239,1.168
515,4.762078186512902,1020,1019.9902390175524,536,31.2014864014547,1.169
511,4.761363597778856,1020,1019.9902475443431,534,30.700464272250912,1.17
514,4.813846678371622,1020,1019.9902560853092,533,30.174232499857204,1.171
514,4.810114409381829,1020,1019.9902646403524,531,29.633616347371728,1.172
513,4.499243496911066,1020,1019.990273209375,529,29.09035327127806,1.173
513,4.293825977884492,1020,1019.9902817922792,528,28.556073118040814,1.174
518,4.060910625914547,1020,1019.9902903889673,528,28.041335421714862,1.175
515,3.900261423567197,1020,1019.990298999341,527,27.55482782937009,1.176
512,3.7816287630000702,1020,1019.9903076233016,527,27.102804112723394,1.177
512,3.7230167934535223,1020,1019.9903162607505,528,26.68880567783609,1.178
505,3.789499328347304,1020,1019.9903249115895,528,26.313672650826724,1.179
493,3.8023784241628773,1020,1019.9903335757207,529,25.975814616219346,1.18
500,3.736515691178985,1020,1019.9903422530468,529,25.671681641363648,1.181
507,3.684952846501842,1020,1019.9903509434702,529,25.396357146303185,1.182
509,3.5444725277852616,1020,1019.9903596468924,530,25.144187152490694,1.183
512,3.431197212107978,1020,1019.9903683632159,529,24.909364918836552,1.184
513,3.317695519316916,1020,1019.9903770923432,529,24.68640426267352,1.185
514,3.369834624039267,1020,1019.9903858341767,528,24.470456814365203,1.186
517,3.4088901833928977,1020,1019.9903945886184,527,24.25745506549135,1.187
516,3.4623856928904178,1020,1019.9904033555707,527,24.044090277931215,1.188
512,3.5037122716521023,1020,1019.9904121349363,526,23.82765801783157,1.189
515,3.62974146268718,1020,1019.9904209266173,524,23.6058214806795,1.19
516,3.6714095356192566,1020,1019.990429730516,524,23.376352487478265,1.191
515,3.575139498129916,1020,1019.9904385465351,524,23.13691082153129,1.192
513,3.4807773867263463,1020,1019.9904473745781,524,22.884913245561844,1.193
510,3.458147092881347,1020,1019.9904562145483,524,22.61752498890621,1.194
505,3.3998689059647234,1020,1019.9904650663487,524,22.331782705919153,1.195
508,3.4021351735324195,1020,1019.990473929883,525,22.024833751057745,1.196
509,3.433803457811041,1020,1019.9904828050547,525,21.694255599577904,1.197
507,3.4919714183224455,1020,1019.990491691767,526,21.33840383795634,1.198
510,3.561573041782597,1020,1019.9905005899226,525,20.956729833677034,1.199
513,3.6208809123548336,1020,1019.9905094994236,525,20.550011908983084,1.2
510,3.5274538439797705,1020,1019.9905184201724,524,20.12045650318659,1.201
509,3.4513781685866025,1020,1019.9905273520716,523,19.671645767137143,1.202
515,3.479409591525421,1020,1019.9905362950248,523,19.208331139962116,1.203
517,3.46032642294814,1020,1019.990545248936,521,18.736094762454943,1.204
515,3.373714483500672,1020,1019.9905542137093,520,18.26091933707474,1.205
516,3.067345102515031,1020,1019.9905631892492,519,17.788720355352048,1.206
515,2.9519983624728696,1020,1019.9905721754602,519,17.3249005509349,1.207
515,3.043350415618862,1020,1019.9905811722473,518,16.873983450392757,1.208
511,3.071060510629305,1020,1019.9905901795158,518,16.439371398907586,1.209
509,3.1217125330569,1020,1019.9905991971717,517,16.023255987554425,1.21
508,3.1713093253542004,1020,1019.9906082251208,518,15.626688269246765,1.211
508,3.1438981246411664,1020,1019.9906172632685,518,15.249794522225049,1.212
505,3.092819448992396,1020,1019.9906263115198,519,14.892102619478372,1.213
505,3.0727339926383905,1020,1019.9906353697796,519,14.55292749703368,1.214
509,3.0608388453407827,1020,1019.9906444379525,518,14.231755591061448,1.215
510,3.0773255575765113,1020,1019.9906535159433,518,13.9285696611218,1.216
511,3.079555475842016,1020,1019.9906626036567,518,13.644066077786299,1.217
512,3.1372699490922087,1020,1019.990671700997,518,13.379732857424326,1.218
511,3.198212936692945,1020,1019.9906808078689,517,13.137775225564162,1.219
511,3.2006418198852735,1020,1019.9906899241763,516,12.920895008811321,1.22
515,3.199446274830923,1020,1019.9906990498233,515,12.731949870702728,1.221
517,3.3039120421140167,1020,1019.9907081847135,515,12.573535774063323,1.222
516,3.440643051752328,1020,1019.990717328751,515,12.447547397583078,1.223
516,3.4490886764249544,1020,1019.9907264818397,514,12.354774467555991,1.224
513,3.487148002616242,1020,1019.9907356438838,514,12.294587882016272,1.225
510,3.6132827904617217,1020,1019.9907448147868,514,12.264760142180522,1.226
510,3.6940260200699986,1020,1019.9907539944523,513,12.261451075831557,1.227
510,3.7156578971393923,1020,1019.9907631827845,514,12.279372213292321,1.228
514,3.7715032091893486,1020,1019.9907723796877,515,12.312121687774965,1.229
508,3.70641934357463,1020,1019.9907815850669,516,12.352657578188792,1.23
506,3.715989077810681,1020,1019.9907907988271,518,12.393854657259427,1.231
502,3.7481617550388435,1020,1019.9908000208737,518,12.429073075356207,1.232
508,3.6944433606917233,1020,1019.9908092511117,517,12.452663115239096,1.233
514,3.6846406044276545,1020,1019.9908184894465,517,12.460340109188392,1.234
516,3.7457683251083487,1020,1019.9908277357839,517,12.449385084295733,1.235
512,3.71416923714784,1020,1019.9908369900303,517,12.418653189516032,1.236
508,3.7255216955931094,1020,1019.990846252092,516,12.368397647732184,1.237
507,3.7376925244391446,1020,1019.9908555218752,515,12.299939462656965,1.238
511,3.6662095956786085,1020,1019.9908647992869,515,12.2152316905109,1.239
515,3.6874286087308636,1020,1019.9908740842337,514,12.116380104469684,1.24
517,3.7194403218971033,1020,1019.9908833766225,514,12.005187271053902,1.241
517,3.8376053640205776,1020,1019.99089267636,513,11.882783481245454,1.242
517,3.9710398346443525,1020,1019.9909019833534,513,11.749396308603012,1.243
509,3.998623327245689,1020,1019.9909112975096,514,11.604291969416495,1.244
506,4.01049879057497,1020,1019.9909206187357,514,11.445897617663213,1.245
502,4.06719819641079,1020,1019.990929946939,515,11.272087069920694,1.246
503,4.219993957606591,1020,1019.9909392820272,515,11.080587668019145,1.247
506,4.417473862663271,1020,1019.9909486239084,516,10.869447493476477,1.248
515,4.577336110260841,1020,1019.9909579724903,516,10.637492730659238,1.249
519,4.689643051003415,1020,1019.9909673276806,516,10.384705688417359,1.25
517,4.797501111539018,1020,1019.9909766893874,515,10.112464736956603,1.251
515,4.810086714378171,1020,1019.9909860575198,515,9.823606773429013,1.252
518,4.935224451424154,1020,1019.9909954319877,514,9.522297689542972,1.253
514,5.170634890873493,1020,1019.9910048127016,513,9.213722654508251,1.254
507,5.319306943996095,1020,1019.9910141995723,513,8.903632320622261,1.255
506,5.434098183479596,1020,1019.9910235925112,511,8.597800866006267,1.256
510,5.454879360918808,1020,1019.99103299143,510,8.301465400222543,1.257
515,5.345278119766625,1020,1019.9910423962409,509,8.018822048829932,1.258
508,5.349653380109167,1020,1019.9910518068572,509,7.752649995795246,1.259
511,5.312029288105691,1020,1019.9910612231928,509,7.5041192841383,1.26
515,5.2618128949342085,1020,1019.9910706451618,510,7.272812043791369,1.261
516,5.346126974573273,1020,1019.9910800726788,511,7.056954227608855,1.262
509,5.488305166901361,1020,1019.9910895056581,511,6.853822316166516,1.263
504,5.672811439113825,1020,1019.9910989440149,512,6.660263264839779,1.264
508,5.750028033468321,1020,1019.9911083876644,512,6.473250707116391,1.265
504,5.764589817840817,1020,1019.9911178365227,512,6.290397613359775,1.266
505,5.751159281439677,1020,1019.9911272905059,512,6.110354304819155,1.267
509,5.708207853739526,1020,1019.9911367495309,511,5.933038687653473,1.268
511,5.616119813696941,1020,1019.991146213515,511,5.759669768935327,1.269
514,5.592433746134702,1020,1019.9911556823757,510,5.592602377986158,1.27
523,5.501174293720854,1020,1019.9911651560313,510,5.434987033063515,1.271
527,5.42775405180312,1020,1019.9911746344009,508,5.29030132437503,1.272
524,5.391452137166606,1020,1019.9911841174033,508,5.161816115398306,1.273
522,5.364522946196518,1020,1019.9911936049583,507,5.052069502135661,1.274
518,5.341229663139599,1020,1019.9912030969857,507,4.9624219082514465,1.275
510,5.185099056201753,1020,1019.9912125934064,507,4.892755977174412,1.276
503,5.101179588616101,1020,1019.9912220941418,507,4.841366108255504,1.277
499,5.046057800459366,1020,1019.991231599114,508,4.805057355215367,1.278
501,4.916012668065578,1020,1019.9912411082463,508,4.779445469979967,1.279
503,4.9451050842665945,1020,1019.9912506214622,509,4.759422721551499,1.28
504,4.976163166244503,1020,1019.9912601386862,510,4.739731062104523,1.281
508,4.909890808577471,1020,1019.9912696598434,511,4.715568056206318,1.282
507,4.977151579362105,1020,1019.9912791848595,511,4.683144145238201,1.283
509,5.056242421776604,1020,1019.991288713661,511,4.640114240880839,1.284
513,5.056601651591399,1020,1019.9912982461746,511,4.585822758675874,1.285
516,5.05549021500076,1020,1019.9913077823279,510,4.521326857880233,1.286
522,5.043677215450386,1020,1019.9913173220492,509,4.4491936301064205,1.287
523,5.05636991390982,1020,1019.9913268652666,509,4.373098413575655,1.288
516,5.0710045235126175,1020,1019.9913364119083,508,4.29727873884643,1.289
505,4.953710126762874,1020,1019.9913459619032,507,4.2259181982316365,1.29
507,4.892089416487832,1020,1019.9913555151815,506,4.162545050859512,1.291
506,4.758493836000334,1020,1019.9913650716738,505,4.109530793684328,1.292
511,4.7276276849461185,1020,1019.9913746313113,506,4.067763067211747,1.293
511,4.717239794250362,1020,1019.991384194025,507,4.036544370873224,1.294
510,4.7582043716135765,1020,1019.9913937597465,507,4.013735226396139,1.295
506,4.786516879056872,1020,1019.9914033284075,508,3.996123460582867,1.296
504,4.621571858813274,1020,1019.9914128999402,510,3.9799672971765676,1.297
508,4.368993732562679,1020,1019.9914224742778,510,3.9616342983780592,1.298
509,4.264924097364055,1020,1019.9914320513539,511,3.9382441514762867,1.299
512,4.152412135364935,1020,1019.991441631102,511,3.9082230397681257,1.3
512,4.048663883850775,1020,1019.9914512134563,510,3.871691257485659,1.301
513,4.0603638934424575,1020,1019.9914607983513,510,3.8306312409529415,1.302
511,3.9041567537967405,1020,1019.9914703857224,509,3.788815268417387,1.303
516,3.694446360333472,1020,1019.9914799755055,508,3.751504920253607,1.304
517,3.738420810829123,1020,1019.9914895676374,508,3.724962933924303,1.305
515,3.826952308544069,1020,1019.9914991620561,508,3.7158389176703075,1.306
516,3.8908114580245328,1020,1019.9915087587009,507,3.7305020751110383,1.307
519,3.9976948749668693,1020,1019.9915183575112,506,3.774397130209132,1.308
515,4.060544592799859,1020,1019.9915279584264,507,3.851495190509777,1.309
511,4.106385718946138,1020,1019.9915375613867,507,3.963899585435746,1.31
509,4.085891777736916,1020,1019.9915471663323,507,4.111647787645086,1.311
507,4.1002987670116005,1020,1019.9915567732044,508,4.292726237156579,1.312
509,4.083459188635474,1020,1019.991566381945,509,4.503288728377396,1.313
510,4.057694020214204,1020,1019.9915759924959,510,4.73804428471457,1.314
513,4.285110239632,1020,1019.991585604799,511,4.990760009718283,1.315
511,4.496370685686867,1020,1019.991595218796,512,5.254811319497982,1.316
507,4.682327501805585,1020,1019.9916048344287,512,5.523708759365605,1.317
510,4.629804421755595,1020,1019.9916144516394,512,5.791538071918756,1.318
515,4.716685155412353,1020,1019.9916240703699,512,6.053266831581921,1.319
516,4.758459214142323,1020,1019.9916336905619,512,6.304893293208343,1.32
515,4.925461615562378,1020,1019.9916433121573,512,6.543436797714228,1.321
515,5.038898274044377,1020,1019.9916529350974,511,6.766790651660327,1.322
519,5.107554400076105,1020,1019.991662559323,511,6.973475741874697,1.323
517,5.2144706126035,1020,1019.9916721847756,511,7.162344649010675,1.324
513,5.304873251448872,1020,1019.9916818113963,511,7.332290098271502,1.325
510,5.403859517712739,1020,1019.9916914391267,511,7.4820076045940755,1.326
511,5.410177685094325,1020,1019.991701067908,511,7.609851223799359,1.327
510,5.458215532761728,1020,1019.9917106976816,512,7.713805444630061,1.328
499,5.465619366939128,1020,1019.9917203283887,512,7.791577416641018,1.329
499,5.524592760295641,1020,1019.9917299599713,513,7.840793971634006,1.33
501,5.620164930564253,1020,1019.9917395923705,514,7.859269885872949,1.331
503,5.754810767649752,1020,1019.9917492255274,515,7.845300482045707,1.332
504,5.815468124083175,1020,1019.9917588593823,514,7.797925804642042,1.333
507,5.784303244703158,1020,1019.9917684938757,514,7.7171172642691594,1.334
512,5.751545222562732,1020,1019.991778128948,514,7.603850563443696,1.335
517,5.808309773498618,1020,1019.9917877645391,514,7.46004759214035,1.336
521,5.771859356275478,1020,1019.9917974005891,513,7.288390615051445,1.337
522,5.678610194264016,1020,1019.9918070370375,512,7.092031951210755,1.338
527,5.732985982032505,1020,1019.9918166738232,511,6.8742401789401635,1.339
526,5.775707222057691,1020,1019.9918263108855,510,6.638037442440204,1.34
525,5.788278909749734,1020,1019.9918359481633,510,6.385888325285908,1.341
512,5.8510715220201766,1020,1019.9918455855957,509,6.1194965094458285,1.342
506,5.876513527970391,1020,1019.9918552231218,509,5.8397509968957575,1.343
508,5.938492991243473,1020,1019.9918648606802,510,5.546841107386233,1.344
501,5.91700651541617,1020,1019.9918744982094,511,5.240532042005479,1.345
500,5.8555458792857875,1020,1019.9918841356478,511,4.920564957023171,1.346
500,5.915912712462981,1020,1019.9918937729333,511,4.587122883608749,1.347
502,5.91368127492373,1020,1019.9919034100042,511,4.241291371343559,1.348
504,5.84910964328838,1020,1019.991913046799,511,3.8854419363423314,1.349
506,5.944223087373011,1020,1019.991922683256,511,3.523475410694654,1.35
509,5.997213150170915,1020,1019.9919323193128,510,3.1608784391977442,1.351
508,5.996465172635297,1020,1019.9919419549067,510,2.8045677268240032,1.352
510,6.0465795167307785,1020,1019.9919515899744,509,2.4625215026678786,1.353
518,6.1223661056029774,1020,1019.9919612244528,508,2.1432237800630984,1.354
521,5.946931800785966,1020,1019.9919708582781,507,1.8549717240897847,1.355
521,5.749418116149684,1020,1019.9919804913873,506,1.6051170627053681,1.356
518,5.670949953338757,1020,1019.991990123717,505,1.3993261857170958,1.357
517,5.53897902446905,1020,1019.991999755204,504,1.2409478332473425,1.358
509,5.458321585825118,1020,1019.9920093857847,504,1.1305704312330214,1.359
508,5.449186632559895,1020,1019.992019015396,504,1.0658327346511636,1.36
512,5.49277996853902,1020,1019.9920286439749,505,1.0415226164446527,1.361
512,5.422557185281784,1020,1019.9920382714583,506,1.0499628490324253,1.362
505,5.301033875178876,1020,1019.9920478977826,508,1.0816449129408465,1.363
508,5.074547421876673,1020,1019.9920575228841,508,1.1260387394699696,1.364
510,4.829218740403331,1020,1019.9920671466991,509,1.1724839907652476,1.365
508,4.608178278459931,1020,1019.9920767691635,509,1.211060835273553,1.366
505,4.419077300577739,1020,1019.9920863902128,509,1.2333453127867968,1.367
507,4.463406486349287,1020,1019.9920960097822,509,1.2329732548387444,1.368
510,4.435916968283,1020,1019.9921056278074,508,1.2059630722336663,1.369
513,4.387676592331114,1020,1019.9921152442232,508,1.1507774314225414,1.37
518,4.2187565773706694,1020,1019.9921248589646,508,1.0681332540472488,1.371
515,4.088354617646921,1020,1019.9921344719671,507,0.9605957241224091,1.372
516,4.057359627720104,1020,1019.9921440831656,506,0.8320135776886849,1.373
522,4.025568717455081,1020,1019.9921536924946,505,0.6868692580534247,1.374
516,3.9122034838840083,1020,1019.9921632998887,504,0.5296271894357986,1.375
514,3.8655479631689604,1020,1019.9921729052819,504,0.3641638763729448,1.376
514,3.862724453391168,1020,1019.9921825086078,504,0.19335267642606627,1.377
507,3.8338999102439137,1020,1019.9921921097996,504,0.018854293874296303,1.378
508,3.8302002615661923,1020,1019.9922017087904,504,-0.15886556005817817,1.379
510,3.716502060271336,1020,1019.9922113055134,506,-0.34030281741405705,1.38
505,3.5445632071877826,1020,1019.9922208999012,507,-0.5265092714710694,1.381
511,3.47994100333937,1020,1019.9922304918866,507,-0.7185835931800979,1.382
508,3.402926512672574,1020,1019.9922400814023,507,-0.9171433974459527,1.383
509,3.4476457004323335,1020,1019.992249668381,507,-1.1218631814619842,1.384
508,3.5283694458569714,1020,1019.9922592527557,507,-1.3311498232807022,1.385
515,3.485488736072616,1020,1019.9922688344602,506,-1.5420046513769872,1.386
515,3.5042663749875276,1020,1019.992278413428,505,-1.7500933862007755,1.387
512,3.566564970076648,1020,1019.9922879895928,505,-1.9500161853037472,1.388
515,3.544302446891523,1020,1019.9922975628881,504,-2.1357431255572887,1.389
516,3.534889012531492,1020,1019.9923071332476,503,-2.301158880399309,1.39
516,3.54572893171133,1020,1019.9923167006048,502,-2.4406459283383457,1.391
515,3.481663684230979,1020,1019.9923262648938,502,-2.549629343873832,1.392
515,3.3838920769634497,1020,1019.9923358260487,501,-2.6250092057682775,1.393
511,3.3061069262207456,1020,1019.9923453840031,501,-2.665419658162835,1.394
510,3.320584164164727,1020,1019.9923549386906,502,-2.6712759745687693,1.395
507,3.373381100382901,1020,1019.9923644900448,503,-2.64460038138706,1.396
502,3.30480794770822,1020,1019.9923740379993,504,-2.588650149355004,1.397
504,3.3155494534668377,1020,1019.9923835824877,505,-2.507402110686918,1.398
510,3.3288535770961176,1020,1019.9923931234437,506,-2.4049703995746046,1.399
514,3.161018672738889,1020,1019.9924026608007,507,-2.2850446612085142,1.4
512,3.092558321089644,1020,1019.9924121944925,507,-2.1504326008169077,1.401
513,3.1689326125155044,1020,1019.9924217244522,506,-2.00277394775717,1.402
511,3.1762662482338597,1020,1019.9924312506125,506,-1.8424651110873498,1.403
512,3.077834320640752,1020,1019.9924407729061,505,-1.6687999624415368,1.404
513,3.0937873311149318,1020,1019.9924502912661,505,-1.4802988999152644,1.405
517,3.113176943119873,1020,1019.9924598056252,504,-1.2751713760269712,1.406
515,3.032950126950565,1020,1019.9924693159167,504,-1.0518396580900027,1.407
503,3.126220852176816,1020,1019.992478822074,504,-0.8094448702923537,1.408
506,3.386396469611612,1020,1019.9924883240308,504,-0.5482603188921296,1.409
512,3.5625862764767393,1020,1019.9924978217202,504,-0.26995071616416133,1.41
514,3.5595659609112458,1020,1019.992507315075,505,0.022362736453366193,1.411
507,3.567716974151509,1020,1019.992516804027,506,0.3242447528615681,1.412
507,3.570279468422684,1020,1019.9925262885079,507,0.6302799360142287,1.413
507,3.5806147313197214,1020,1019.9925357684499,509,0.9345542607610328,1.414
510,3.572853939970986,1020,1019.9925452437853,510,1.2312175422481,1.415
510,3.676849125398145,1020,1019.9925547144464,510,1.515047986162861,1.416
510,3.8709186647862164,1020,1019.9925641803645,510,1.7819404549304958,1.417
510,4.051253544280185,1020,1019.9925736414709,511,2.0292532688023948,1.418
514,4.143672913323857,1020,1019.992583097697,510,2.255970523853947,1.419
515,4.1587319960767095,1020,1019.992592548974,510,2.462663107832346,1.42
514,4.191078054684202,1020,1019.9926019952334,510,2.651257915058485,1.421
515,4.309497580846435,1020,1019.9926114364068,510,2.8246484388341564,1.422
516,4.44825508598798,1020,1019.9926208724262,509,2.9861988666340955,1.423
513,4.6042004241722525,1020,1019.9926303032228,508,3.1392068354933467,1.424
512,4.768983452953472,1020,1019.9926397287279,508,3.286396185836224,1.425
517,4.7561689196562424,1020,1019.9926491488729,508,3.4295085134252177,1.426
514,4.793293827882894,1020,1019.9926585635892,509,3.569049204345046,1.427
512,4.7772942781494505,1020,1019.9926679728076,510,3.7042206921603666,1.428
515,4.888681960569226,1020,1019.9926773764589,510,3.8330471869955116,1.429
515,5.008171790550015,1020,1019.9926867744741,511,3.952667033524121,1.43
513,5.203032425485995,1020,1019.9926961667841,512,4.059745917839217,1.431
505,5.2555782968460125,1020,1019.9927055533196,513,4.150948696453147,1.432
495,5.296294767652685,1020,1019.9927149340117,513,4.223400688448941,1.433
499,5.220493434563594,1020,1019.9927243087907,513,4.275071862369029,1.434
508,5.143674915166469,1020,1019.992733677587,513,4.305029693395002,1.435
508,5.122440301935686,1020,1019.9927430403316,513,4.313526608988371,1.436
507,5.162946039591419,1020,1019.9927523969557,512,4.301912276054777,1.437
512,5.127341434199662,1020,1019.9927617473907,512,4.272386021511142,1.438
514,5.054121416754284,1020,1019.9927710915674,511,4.227627702717252,1.439
521,5.1381362437263505,1020,1019.9927804294168,510,4.1703639393725584,1.44
525,5.246203242448671,1020,1019.9927897608698,509,4.102938438275906,1.441
524,5.286794662925374,1020,1019.9927990858571,509,4.026957972349823,1.442
519,5.267886546354689,1020,1019.9928084043097,509,3.9430776330739095,1.443
512,5.263147805685914,1020,1019.9928177161585,509,3.8509700342970126,1.444
508,5.239410461057757,1020,1019.9928270213347,510,3.749495595433276,1.445
501,5.191417555260973,1020,1019.9928363197703,511,3.6370593470599304,1.446
495,5.149700668592426,1020,1019.9928456113969,512,3.5121090753494744,1.447
496,5.22570437885554,1020,1019.9928548961464,512,3.373705242982232,1.448
502,5.279526996454907,1020,1019.99286417395,513,3.2220794525457297,1.449
509,5.399487008235008,1020,1019.9928734447387,512,3.059097553870455,1.45
508,5.5099828582786845,1020,1019.9928827084434,512,2.8885551434385164,1.451
512,5.465322541367757,1020,1019.9928919649949,512,2.7162541102997197,1.452
517,5.539053305360846,1020,1019.9929012143245,512,2.5498350507062058,1.453
518,5.6328469142680335,1020,1019.9929104563637,511,2.3983684433189145,1.454
523,5.6473938268100925,1020,1019.9929196910437,510,2.2717356012713457,1.455
520,5.639306448256148,1020,1019.9929289182953,509,2.179857191966973,1.456
517,5.614410402270161,1020,1019.9929381380491,508,2.131849745855397,1.457
515,5.491627230697523,1020,1019.992947350235,507,2.135204934876406,1.458
513,5.247956460192146,1020,1019.992956554783,507,2.1950888630621526,1.459
512,5.065118251714003,1020,1019.9929657516229,507,2.3138474787212324,1.46
507,5.023480098599138,1020,1019.9929749406849,508,2.490780154582174,1.461
510,4.976089945323664,1020,1019.9929841218993,510,2.72220965204832,1.462
510,5.021164707933747,1020,1019.9929932951966,510,3.0018385854993084,1.463
504,5.104242525879117,1020,1019.9930024605071,511,3.3213468547578784,1.464
504,5.042855933445503,1020,1019.9930116177613,512,3.6711569215950637,1.465
509,4.905312345036302,1020,1019.9930207668901,514,4.041276649532704,1.466
512,4.66409612956127,1020,1019.9930299078239,515,4.422122586544355,1.467
511,4.409931270071849,1020,1019.9930390404932,515,4.805230271762351,1.468
510,4.310471831514894,1020,1019.9930481648282,515,5.1837736180591065,1.469
510,4.348915703695104,1020,1019.99305728076,515,5.552842197530502,1.47
512,4.296872319498523,1020,1019.9930663882199,515,5.909459243134732,1.471
519,4.161540261727348,1020,1019.9930754871395,514,6.25235836597847,1.472
519,3.9932826923067024,1020,1019.9930845774513,513,6.58156827430763,1.473
519,3.8411227996482613,1020,1019.993093659087,513,6.897878454331312,1.474
518,3.7280290098508884,1020,1019.9931027319788,513,7.202271509949781,1.475
508,3.6982721791035873,1020,1019.9931117960589,514,7.495407305578151,1.476
505,3.660909207334268,1020,1019.9931208512596,513,7.777230763506195,1.477
506,3.65381055569575,1020,1019.9931298975132,514,8.046752690005125,1.478
507,3.6738693575291914,1020,1019.9931389347523,515,8.302025416515049,1.479
508,3.6647283024413966,1020,1019.9931479629097,517,8.540305155723104,1.48
511,3.4653131036000397,1020,1019.9931569819175,518,8.758363675981197,1.481
511,3.4404861943802536,1020,1019.9931659917086,519,8.952888084061847,1.482
508,3.4597114009409022,1020,1019.993174992215,519,9.120894881648223,1.483
508,3.460782570648076,1020,1019.9931839833687,519,9.260086119732648,1.484
511,3.4334364146109237,1020,1019.9931929651013,519,9.36909007046989,1.485
512,3.602050599570749,1020,1019.9932019373443,519,9.447551819993617,1.486
518,3.6856986994267524,1020,1019.993210900029,518,9.496065470359857,1.487
516,3.695043192781702,1020,1019.9932198530867,518,9.515965377468834,1.488
512,3.81711408798002,1020,1019.9932287964496,517,9.50901639268879,1.489
514,3.985577212615656,1020,1019.9932377300499,516,9.477060144940328,1.49
514,3.9032377765750184,1020,1019.9932466538196,515,9.42168380981459,1.491
511,3.929719183774175,1020,1019.9932555676908,515,9.343977524651718,1.492
515,3.9185479757099544,1020,1019.9932644715957,515,9.244435034207552,1.493
514,3.9815822583858265,1020,1019.9932733654666,516,9.123029330992603,1.494
512,4.104605992404945,1020,1019.9932822492353,517,8.97946400780383,1.495
508,4.225260123755064,1020,1019.9932911228332,518,8.81356763689594,1.496
504,4.34714775167889,1020,1019.9932999861915,518,8.625769719908066,1.497
504,4.346455076035288,1020,1019.9933088392415,519,8.41757845896124,1.498
508,4.272041194675549,1020,1019.9933176819152,519,8.19197574693944,1.499
511,4.230610451804597,1020,1019.9933265141442,519,7.953653310616404,1.5
510,4.2570803303994635,1020,1019.9933353358613,518,7.709034073371457,1.501
511,4.263738326222297,1020,1019.9933441469996,517,7.466051823345364,1.502
518,4.13896022328715,1020,1019.9933529474922,516,7.23369613268315,1.503
518,4.15667224674228,1020,1019.9933617372728,515,7.021362738716627,1.504
513,4.215360413555842,1020,1019.9933705162755,515,6.838076861048348,1.505
519,4.290331639669754,1020,1019.9933792844342,514,6.6916746993001155,1.506
518,4.393238522909566,1020,1019.9933880416831,513,6.588035832240139,1.507
515,4.466260110614477,1020,1019.9933967879558,512,6.5304572509851795,1.508
511,4.493234492240653,1020,1019.9934055231859,512,6.519248721142604,1.509
502,4.485806165885812,1020,1019.9934142473073,513,6.5516083312691835,1.51
503,4.481943996704369,1020,1019.9934229602547,513,6.621806382779743,1.511
509,4.580110161226928,1020,1019.9934316619622,515,6.721668150672364,1.512
504,4.588163480654044,1020,1019.9934403523637,516,6.841307289560696,1.513
495,4.5080424131691705,1020,1019.9934490313933,517,6.970028261154821,1.514
508,4.598897925974339,1020,1019.9934576989851,518,7.097293535613438,1.515
515,4.5822860693375915,1020,1019.9934663550732,519,7.213642941003773,1.516
511,4.645654874408977,1020,1019.9934749995916,519,7.311459458999866,1.517
515,4.737237016142383,1020,1019.9934836324744,518,7.385496872157756,1.518
518,4.8184608928952475,1020,1019.9934922536552,518,7.433117021418368,1.519
519,4.892279255057895,1020,1019.993500863068,517,7.454223104769007,1.52
517,4.910687749849002,1020,1019.9935094606474,516,7.4509141732073605,1.521
519,4.870086082623693,1020,1019.9935180463274,515,7.4269190947473716,1.522
514,4.735153524744979,1020,1019.9935266200421,515,7.386891872560424,1.523
517,4.622765415620621,1020,1019.9935351817255,515,7.3356620785568225,1.524
518,4.558129844304941,1020,1019.9935437313118,514,7.277533982640876,1.525
515,4.549097194921784,1020,1019.9935522687349,513,7.215717601488686,1.526
510,4.546179608178152,1020,1019.993560793929,514,7.15195682982615,1.527
505,4.596857401989254,1020,1019.993569306828,514,7.086395159997253,1.528
503,4.5626646368546,1020,1019.9935778073657,515,7.01768892445662,1.529
504,4.518164948160152,1020,1019.9935862954751,516,6.943344355172534,1.53
505,4.5032295538425915,1020,1019.9935947710894,517,6.860223285852496,1.531
507,4.39934803428342,1020,1019.9936032341423,518,6.7651385453562805,1.532
506,4.324804103749011,1020,1019.9936116845677,518,6.6554482000074,1.533
508,4.316804942616128,1020,1019.9936201223002,518,6.529560076189777,1.534
512,4.410651534137995,1020,1019.9936285472747,518,6.3872741992952475,1.535
505,4.292651610691983,1020,1019.9936369594263,516,6.229918003069472,1.536
505,4.146486193817929,1020,1019.99364535869,515,6.06026250709676,1.537
510,4.128937921877624,1020,1019.993653745001,515,5.8822411095294695,1.538
507,4.023988532330232,1020,1019.9936621182953,515,5.700520119142621,1.539
509,3.720077392927375,1020,1019.9936704785084,513,5.519987822763522,1.54
517,3.737238738556119,1020,1019.9936788255757,512,5.34523669244679,1.541
516,3.7739435357111195,1020,1019.9936871594325,512,5.180112696244186,1.542
519,3.785984697397513,1020,1019.9936954800144,512,5.02739617495591,1.543
518,3.7349505113724804,1020,1019.9937037872562,512,4.888659141389133,1.544
513,3.6951863505691898,1020,1019.993712081093,513,4.764315600932388,1.545
513,3.5443903711560725,1020,1019.9937203614597,515,4.653849317642377,1.546
511,3.445494814838799,1020,1019.9937286282914,515,4.556173367548426,1.547
510,3.4104249753624956,1020,1019.9937368815229,516,4.470053860863132,1.548
512,3.4131443379890998,1020,1019.9937451210888,515,4.394521292712364,1.549
512,3.4136590593042717,1020,1019.9937533469235,515,4.329198594439611,1.55
513,3.3174084024062154,1020,1019.9937615589618,515,4.274492067145787,1.551
515,3.273680341688415,1020,1019.9937697571379,515,4.231614428451929,1.552
517,3.410433263786232,1020,1019.993777941386,515,4.202433487178339,1.553
516,3.477531023226058,1020,1019.9937861116398,514,4.189163405901889,1.554
513,3.516230067741241,1020,1019.9937942678328,513,4.193937685111693,1.555
514,3.526141018928445,1020,1019.993802409899,512,4.218322701865141,1.556
515,3.4271789077498083,1020,1019.993810537773,512,4.262844656518068,1.557
508,3.4202767168918133,1020,1019.9938186513903,511,4.3266071654660765,1.558
507,3.3322652702827535,1020,1019.9938267506866,511,4.4070691450054955,1.559
508,3.3239180263679544,1020,1019.9938348355984,512,4.500033356647733,1.56
511,3.3602721553315957,1020,1019.9938429060619,513,4.599867326852565,1.561
512,3.2831682695382933,1020,1019.9938509620131,514,4.699944270841841,1.562
510,3.24200795901484,1020,1019.9938590033883,515,4.793257869120669,1.563
510,3.3968972316487673,1020,1019.9938670301237,516,4.8731375215601895,1.564
508,3.4336289865042735,1020,1019.9938750421559,516,4.9339745717753365,1.565
505,3.407079178597125,1020,1019.993883039421,517,4.9718666972540495,1.566
511,3.3712785694510123,1020,1019.9938910218555,517,4.985096612517232,1.567
512,3.298953419214261,1020,1019.9938989893951,517,4.974380513573039,1.568
517,3.1644213417485103,1020,1019.9939069419754,516,4.942848924176997,1.569
511,3.069595669877466,1020,1019.9939148795318,515,4.895755002204471,1.57
513,3.0530005914279594,1020,1019.9939228019991,515,4.839939018825455,1.571
517,3.0421710850342434,1020,1019.993930709313,514,4.783107769317698,1.572
515,3.0616524378224703,1020,1019.9939386014082,513,4.7330100474607315,1.573
517,3.0433794550416886,1020,1019.9939464782199,512,4.69660203680654,1.574
514,3.220874424295093,1020,1019.9939543396833,512,4.6792987611615295,1.575
513,3.362591527198287,1020,1019.9939621857345,512,4.684398773622294,1.576
504,3.4982150710511823,1020,1019.9939700163097,512,4.712748956043287,1.577
502,3.5257573687671138,1020,1019.9939778313444,513,4.762686760024695,1.578
502,3.5268444181742296,1020,1019.993985630774,514,4.830262534323492,1.579
504,3.6656873401358787,1020,1019.9939934145334,515,4.909709530463002,1.58
511,3.8064592336063714,1020,1019.9940011825577,516,4.99409858573045,1.581
508,3.8011486015468376,1020,1019.9940089347822,517,5.076092820641598,1.582
513,3.84402569445437,1020,1019.9940166711424,517,5.148708134066002,1.583
514,3.7849070338494393,1020,1019.9940243915742,517,5.205988903563686,1.584
510,3.735824480201733,1020,1019.9940320960129,517,5.243523838345559,1.585
510,3.7589631029742345,1020,1019.9940397843936,517,5.258751099087399,1.586
517,3.882722555216421,1020,1019.9940474566517,516,5.251030408084372,1.587
521,3.962351219685426,1020,1019.9940551127227,516,5.221489263751333,1.588
519,3.978736397749466,1020,1019.9940627525414,515,5.172677761576775,1.589
512,4.000051049162355,1020,1019.9940703760428,514,5.108089468529167,1.59
509,3.9516442717280107,1020,1019.994077983162,513,5.031621956722051,1.591
512,3.9034838035101966,1020,1019.9940855738339,512,4.9470577206231425,1.592
512,4.008353627357895,1020,1019.9940931479939,512,4.857642109233758,1.593
515,4.074110707647089,1020,1019.9941007055779,513,4.765818274828261,1.594
513,4.014318642774996,1020,1019.9941082465218,514,4.673151135614431,1.595
514,4.0650217880088455,1020,1019.994115770761,515,4.58043778707519,1.596
511,4.048662965600257,1020,1019.9941232782314,516,4.48796830064884,1.597
514,4.026944016162326,1020,1019.9941307688684,516,4.395876001450354,1.598
522,4.0944668682555845,1020,1019.994138242607,516,4.304504751124313,1.599
520,4.078356128842372,1020,1019.9941456993818,516,4.214723026470474,1.6
521,4.071328850534928,1020,1019.9941531391266,516,4.128127909445093,1.601
517,4.0446649382042565,1020,1019.9941605617762,515,4.04710229592181,1.602
508,4.024477621404497,1020,1019.994167967265,515,3.974711853623876,1.603
