EMG_raw,EMG_processed,EDA_raw,EDA_processed,ECG_raw,ECG_processed,time_sec
512,0.4480718570834233,1020,1019.9951780273035,508,-1.5829026483075292,0.0
511,0.47360927820383875,1020,1019.9951702290194,508,-2.0058175821284316,0.001
512,0.5040756342379167,1020,1019.995162417635,507,-2.422555963494113,0.002
510,0.554859880206052,1020,1019.9951545931752,506,-2.827388330841755,0.003
510,0.5669615332384523,1020,1019.9951467556651,505,-3.215480965272777,0.004
512,0.6145798021840406,1020,1019.9951389051301,504,-3.583178526728796,0.005
512,0.6277261477411271,1020,1019.9951310415962,505,-3.9281613626958944,0.006
511,0.6330362384515449,1020,1019.9951231650888,505,-4.2494556662706815,0.007
513,0.6865876160878063,1020,1019.9951152756333,504,-4.547291874121365,0.008
513,0.6905776683667173,1020,1019.9951073732553,504,-4.82282511299764,0.009
511,0.6971697385285891,1020,1019.9950994579802,505,-5.0777475829308205,0.01
511,0.7135013313896619,1020,1019.9950915298331,505,-5.313835513994135,0.011
511,0.7406519343565902,1020,1019.9950835888384,505,-5.532482659487216,0.012
512,0.7763632786320174,1020,1019.9950756350207,505,-5.734276702609046,0.013
512,0.824319253792716,1020,1019.9950676684042,505,-5.918672626853726,0.014
512,0.8300029233539377,1020,1019.9950596890129,505,-6.083808041626755,0.015
512,0.8387463963606567,1020,1019.9950516968705,505,-6.226491223523804,0.016
508,0.8512214477748047,1020,1019.9950436920016,504,-6.342374759219466,0.017
511,0.8603707281791447,1020,1019.9950356744306,504,-6.426307368650015,0.018
510,0.8709828496341487,1020,1019.9950276441817,503,-6.472835469850962,0.019
511,0.9221381321542295,1020,1019.9950196012791,502,-6.47680691244179,0.02
510,0.993077359949214,1020,1019.9950115457467,502,-6.434014989968229,0.021
509,1.0653420231290027,1020,1019.9950034776087,501,-6.341813965419176,0.022
511,1.0974555455749813,1020,1019.9949953968888,502,-6.199639680508363,0.023
512,1.1513923041438876,1020,1019.9949873036111,502,-6.00938056762639,0.024
510,1.2045225628135732,1020,1019.9949791978,503,-5.775563688349623,0.025
513,1.246460853759552,1020,1019.9949710794803,504,-5.505343714507397,0.026
514,1.2709445588703139,1020,1019.9949629486763,505,-5.208305752758054,0.027
512,1.3332681806206872,1020,1019.9949548054127,506,-4.8961115611990955,0.028
514,1.358823304961665,1020,1019.9949466497136,506,-4.582029883621389,0.029
512,1.3448257352887867,1020,1019.9949384816035,506,-4.280393724995509,0.03
512,1.382585639406057,1020,1019.9949303011075,506,-4.006021122738048,0.031
514,1.419140657228077,1020,1019.994922108251,505,-3.773624506849552,0.032
512,1.406585111365323,1020,1019.9949139030599,505,-3.5972216274979987,0.033
511,1.4351188242459896,1020,1019.9949056855597,505,-3.4895525976583572,0.034
511,1.4874805338615724,1020,1019.9948974557759,506,-3.4615057199954227,0.035
510,1.5509483484769313,1020,1019.9948892137339,506,-3.521559712849221,0.036
510,1.5692688599307671,1020,1019.9948809594592,506,-3.6752589339488795,0.037
509,1.5841120424977013,1020,1019.9948726929773,506,-3.92474688031354,0.038
512,1.5810696061726826,1020,1019.9948644143145,505,-4.268388470989307,0.039
511,1.642091279408257,1020,1019.9948561234972,505,-4.700512904189369,0.04
511,1.7759047055586312,1020,1019.9948478205519,505,-5.211307612285287,0.041
511,1.9189557495500098,1020,1019.9948395055043,505,-5.786891454766771,0.042
511,1.8964769059681257,1020,1019.9948311783804,505,-6.40959168122059,0.043
514,1.9327088742299419,1020,1019.9948228392067,504,-7.058442414139542,0.044
515,1.9574504594474171,1020,1019.9948144880103,503,-7.709910192429296,0.045
515,2.0145418791818246,1020,1019.9948061248191,503,-8.33883404852909,0.046
513,2.014684107069761,1020,1019.9947977496612,501,-8.919545636969891,0.047
514,1.973745585386478,1020,1019.9947893625648,499,-9.427112210758905,0.048
514,2.0279170868583445,1020,1019.9947809635581,499,-9.838625043771202,0.049
509,2.032117462718597,1020,1019.9947725526694,498,-10.134441916423093,0.05
509,2.0202735905771347,1020,1019.9947641299262,497,-10.299287896496036,0.051
508,2.002013719563047,1020,1019.994755695357,497,-10.323124952858432,0.052
508,1.9835658348017904,1020,1019.9947472489897,497,-10.201716713837301,0.053
510,2.0024195924677497,1020,1019.9947387908536,498,-9.936838217869761,0.054
509,1.966635477579419,1020,1019.9947303209782,499,-9.536109912477338,0.055
509,1.9629662575669535,1020,1019.9947218393935,500,-9.012467248861931,0.056
511,1.9692570736658008,1020,1019.99471334613,501,-8.383307675735733,0.057
514,1.927188716021846,1020,1019.9947048412181,502,-7.669381852940278,0.058
515,1.9322331016280174,1020,1019.9946963246883,503,-6.893513539473225,0.059
515,1.9343206549662937,1020,1019.9946877965712,504,-6.079242833207352,0.06
512,1.968452677934283,1020,1019.9946792568966,506,-5.249491195056599,0.061
510,1.9511937988773211,1020,1019.9946707056946,508,-4.425344669645033,0.062
510,1.9229216674880696,1020,1019.9946621429957,508,-3.625043324949707,0.063
508,1.8825926864539446,1020,1019.9946535688299,509,-2.863248408389512,0.064
503,1.8821987077027134,1020,1019.9946449832277,509,-2.150633185883499,0.065
504,1.8988055601988743,1020,1019.9946363862194,509,-1.4938111173884665,0.066
509,1.902430434282826,1020,1019.9946277778362,509,-0.8955807432712785,0.067
514,1.8971844717319994,1020,1019.9946191581088,508,-0.3554354350642903,0.068
513,1.9026858437423841,1020,1019.9946105270686,508,0.1297380307400412,0.069
515,1.867757965955877,1020,1019.9946018847471,508,0.5648621680649415,0.07
512,1.8421899169209848,1020,1019.9945932311756,509,0.9558646179683176,0.071
512,1.7948049042483036,1020,1019.9945845663859,509,1.3089485106711274,0.072
514,1.7705831775055674,1020,1019.9945758904104,510,1.6299988369079126,0.073
512,1.7700385720675678,1020,1019.9945672032817,511,1.9241616113524198,0.074
512,1.7474725690425645,1020,1019.9945585050331,511,2.1956074940573207,0.075
512,1.7112390772656347,1020,1019.9945497956982,512,2.447469193544586,0.076
513,1.7131023315937377,1020,1019.9945410753111,513,2.681924384274413,0.077
513,1.6587059811370446,1020,1019.9945323439059,513,2.900383967475413,0.078
512,1.641589705233619,1020,1019.9945236015163,513,3.103739657655401,0.079
512,1.647148962323183,1020,1019.9945148481764,514,3.292625078699202,0.08
512,1.6127048036686293,1020,1019.9945060839208,514,3.4676499012800694,0.081
511,1.5966749048571338,1020,1019.9944973087839,514,3.629575502882156,0.082
511,1.627587479016061,1020,1019.9944885228,514,3.779412126712643,0.083
512,1.585875896870613,1020,1019.9944797260035,514,3.9184309401545603,0.084
509,1.5329869606958106,1020,1019.9944709184296,513,4.048098521616937,0.085
511,1.462884837307087,1020,1019.9944621001135,513,4.169954132163835,0.086
512,1.4684000941369928,1020,1019.994453271091,513,4.285459408994998,0.087
511,1.4762253609477278,1020,1019.9944444313973,512,4.395853843906074,0.088
512,1.512944143312277,1020,1019.9944355810679,513,4.502046466851342,0.089
510,1.4576417571224305,1020,1019.9944267201384,514,4.604564796707755,0.09
511,1.310951614695342,1020,1019.9944178486447,515,4.703568146126479,0.091
511,1.1725580630975794,1020,1019.9944089666222,514,4.798917459747746,0.092
511,1.1429340414436961,1020,1019.994400074106,515,4.890282698869949,0.093
512,1.1234555470596945,1020,1019.9943911711315,515,4.977264069344376,0.094
514,1.1256363251430814,1020,1019.9943822577342,515,5.059504271691645,0.095
510,1.0611837007169838,1020,1019.9943733339495,515,5.136773082437275,0.096
512,1.0462732116549576,1020,1019.9943643998125,515,5.209011464664177,0.097
514,1.0865977580857082,1020,1019.9943554553582,515,5.276329261738628,0.098
513,1.0557424273414875,1020,1019.9943465006221,515,5.338957440096283,0.099
511,1.0543692120103987,1020,1019.9943375356405,515,5.397162023655517,0.1
509,1.0678131989371968,1020,1019.9943285604498,515,5.4511319869773,0.101
511,1.0645386306302034,1020,1019.9943195750869,515,5.500857428402745,0.102
509,1.0626667727494172,1020,1019.9943105795891,514,5.546017314100987,0.103
510,1.0857001998694984,1020,1019.994301573994,514,5.585897607899578,0.104
511,1.1020173402907925,1020,1019.9942925583399,514,5.619359564564869,0.105
510,1.1093882848070706,1020,1019.994283532665,515,5.644872857904441,0.106
513,1.1642773202501009,1020,1019.994274497007,515,5.660618735091235,0.107
512,1.1919095118137941,1020,1019.9942654514042,515,5.664656671460348,0.108
510,1.1887876227628136,1020,1019.9942563958951,515,5.655137502004041,0.109
511,1.2205152150203742,1020,1019.9942473305194,515,5.630538907874366,0.11
513,1.1766974495298,1020,1019.9942382553171,516,5.589895279093876,0.111
513,1.1862703670733676,1020,1019.9942291703286,516,5.532992384604907,0.112
514,1.210148454704312,1020,1019.9942200755944,516,5.460498166380471,0.113
512,1.2829872372415192,1020,1019.9942109711554,516,5.3740057790811795,0.114
511,1.3459400521102838,1020,1019.9942018570522,515,5.275974624148567,0.115
512,1.362900255754422,1020,1019.9941927333251,515,5.169568518237528,0.116
511,1.3514559406234397,1020,1019.9941836000152,515,5.058404615124508,0.117
510,1.3830654193677294,1020,1019.9941744571632,514,4.946239503799374,0.118
509,1.4056896909065855,1020,1019.9941653048098,513,4.836628417272031,0.119
512,1.4430858498500951,1020,1019.9941561429954,513,4.732598946167007,0.12
511,1.4589304641036827,1020,1019.9941469717604,513,4.636380921678809,0.121
509,1.4666270223006064,1020,1019.9941377911463,512,4.5492278821216,0.122
510,1.4609563852354108,1020,1019.9941286011939,513,4.471352832664443,0.123
511,1.4202696866677085,1020,1019.9941194019442,514,4.40198367214047,0.124
510,1.4112022657061458,1020,1019.9941101934386,514,4.339524452957757,0.125
511,1.4090878222232346,1020,1019.9941009757189,515,4.281791191900356,0.126
513,1.4024032018037484,1020,1019.9940917488269,515,4.2262794052607555,0.127
514,1.4575572452444365,1020,1019.994082512805,515,4.170417728829028,0.128
513,1.4749820064659505,1020,1019.9940732676954,514,4.111768117009278,0.129
512,1.4882351089796275,1020,1019.9940640135404,514,4.0481460986887265,0.13
515,1.5290032801982536,1020,1019.9940547503828,515,3.9776508296603468,0.131
513,1.5615009828116848,1020,1019.9940454782658,513,3.898610666968904,0.132
512,1.6021554774578883,1020,1019.994036197233,513,3.8094639387498015,0.133
513,1.6256395985540988,1020,1019.9940269073276,513,3.7086061846419365,0.134
512,1.6615176219444205,1020,1019.9940176085933,512,3.5942434865714827,0.135
510,1.7379268759172815,1020,1019.9940083010737,512,3.464294972576498,0.136
510,1.7925152741812043,1020,1019.9939989848125,511,3.3163854670767337,0.137
507,1.8369574590846296,1020,1019.9939896598529,511,3.147961887494028,0.138
508,1.8007122056259883,1020,1019.9939803262381,511,2.956554542359306,0.139
509,1.812643969342255,1020,1019.9939709840113,511,2.7401872257103856,0.14
511,1.8323505320814124,1020,1019.9939616332157,511,2.497919242509781,0.141
513,1.8327831722702537,1020,1019.9939522738949,512,2.23048072565511,0.142
513,1.8367520300090796,1020,1019.9939429060931,512,1.9409427504714307,0.143
514,1.8185997850163418,1020,1019.9939335298549,512,1.635348702532333,0.144
514,1.8019534596624889,1020,1019.9939241452247,512,1.3232256182571294,0.145
513,1.7977244161247445,1020,1019.9939147522472,512,1.0178950662886808,0.146
511,1.8193701340571566,1020,1019.9939053509669,512,0.7365120349975293,0.147
512,1.8059492337435281,1020,1019.9938959414284,512,0.4997757334780754,0.148
512,1.8256412258744734,1020,1019.9938865236767,512,0.3312769772927169,0.149
511,1.8344003104215405,1020,1019.9938770977568,511,0.25647216342673884,0.15
509,1.822441251367496,1020,1019.9938676637138,511,0.30130270770244927,0.151
508,1.813927218348022,1020,1019.9938582215931,511,0.4905091624515998,0.152
508,1.81809812383294,1020,1019.9938487714406,511,0.8457181757009017,0.153
509,1.8659704715864316,1020,1019.9938393133033,510,1.3834055270186407,0.154
509,1.9915987757768134,1020,1019.9938298472279,510,2.1128581591100852,0.155
508,2.118553420469847,1020,1019.9938203732612,511,3.034270704483859,0.156
508,2.1249841808604835,1020,1019.9938108914506,511,4.137114931763929,0.157
509,2.100028105070246,1020,1019.9938014018438,513,5.398912034397163,0.158
515,2.2018297374669658,1020,1019.9937919044886,515,6.784518520403042,0.159
515,2.2937653302891325,1020,1019.9937823994327,516,8.246009713173263,0.16
516,2.435130817282308,1020,1019.9937728867243,518,9.723214660219554,0.161
515,2.586603921869978,1020,1019.9937633664116,520,11.144926354067906,0.162
511,2.643291379755852,1020,1019.9937538385428,521,12.430783856844211,0.163
510,2.5728654245951033,1020,1019.9937443031657,521,13.493798914379711,0.164
513,2.5767331507231623,1020,1019.9937347603285,521,14.243478603586011,0.165
512,2.625162673827691,1020,1019.9937252100789,521,14.589475402756227,0.166
512,2.7125445017374332,1020,1019.9937156524646,522,14.445672907247022,0.167
511,2.7484155884276222,1020,1019.9937060875335,521,13.734586141510238,0.168
510,2.7211940499724463,1020,1019.9936965153337,520,12.391920756069542,0.169
512,2.6796890632728756,1020,1019.9936869359138,519,10.371099439991134,0.17
510,2.6280147182989495,1020,1019.9936773493231,519,7.6475311380705335,0.171
510,2.6225187677985993,1020,1019.9936677556105,516,4.222372969689329,0.172
509,2.629292043974794,1020,1019.9936581548262,514,0.12552085092427961,0.173
511,2.6229790438647127,1020,1019.9936485470206,510,-4.58243143632776,0.174
512,2.6340810907438135,1020,1019.9936389322437,507,-9.809499315464052,0.175
512,2.6541605740476943,1020,1019.9936293105451,502,-15.433066454073131,0.176
513,2.6273330220716287,1020,1019.9936196819748,495,-21.30221049198668,0.177
517,2.569782025352908,1020,1019.9936100465833,487,-27.241618821418477,0.178
519,2.540487351022853,1020,1019.993600404421,480,-33.05701181086087,0.179
519,2.5661086995276525,1020,1019.993590755539,473,-38.541881039229764,0.18
515,2.5934778112130106,1020,1019.9935810999885,467,-43.48524935946151,0.181
511,2.5821398312461183,1020,1019.9935714378215,462,-47.680077567255,0.182
506,2.574215901423603,1020,1019.9935617690898,455,-50.93188300000455,0.183
505,2.5874095010023948,1020,1019.9935520938456,449,-53.06709929183468,0.184
504,2.5254521190344015,1020,1019.9935424121412,446,-53.94069625006096,0.185
503,2.475152123338657,1020,1019.993532724029,446,-53.442601054237436,0.186
507,2.393688336705468,1020,1019.9935230295622,447,-51.50252397340017,0.187
512,2.3459078822355313,1020,1019.9935133287944,451,-48.092894445972526,0.188
515,2.353888241901142,1020,1019.9935036217793,459,-43.22974849700233,0.189
516,2.3373006824226996,1020,1019.9934939085705,468,-36.97156219493372,0.19
516,2.327709890357245,1020,1019.9934841892217,479,-29.416182022615857,0.191
515,2.3694869694174527,1020,1019.993474463787,492,-20.696144305087955,0.192
512,2.4827447835528793,1020,1019.9934647323206,505,-10.972785538686036,0.193
512,2.502465654449558,1020,1019.9934549948761,518,-0.42961063977281355,0.194
511,2.498959804433549,1020,1019.9934452515071,530,10.73460068812239,0.195
510,2.5027620815165803,1020,1019.9934355022668,540,22.312508983172332,0.196
512,2.510349322669912,1020,1019.9934257472086,550,34.09439656482702,0.197
511,2.4779777256428996,1020,1019.9934159863855,559,45.87357723448511,0.198
510,2.4641398401475967,1020,1019.9934062198507,567,57.45092320648102,0.199
510,2.4509903831417823,1020,1019.9933964476571,576,68.63851626067662,0.2
511,2.4446736362311285,1020,1019.9933866698574,585,79.2625220426324,0.201
511,2.47092186621874,1020,1019.9933768865047,594,89.1654422555165,0.202
510,2.463325721059257,1020,1019.9933670976519,603,98.20791661446404,0.203
508,2.3952136052322195,1020,1019.9933573033512,611,106.27022941348594,0.204
508,2.2759162255089507,1020,1019.993347503655,619,113.25363341765005,0.205
509,2.138199725253577,1020,1019.9933376986154,626,119.08154677179289,0.206
515,2.0812270164162725,1020,1019.9933278882853,633,123.7006163498584,0.207
514,2.0736086441703625,1020,1019.9933180727174,637,127.08158238277797,0.208
512,1.9684032039280368,1020,1019.9933082519645,640,129.21983249627644,0.209
513,1.8637854566257455,1020,1019.9932984260803,643,130.13550461504968,0.21
512,1.736791175202434,1020,1019.9932885951179,644,129.8729901548274,0.211
513,1.595288600031336,1020,1019.9932787591305,644,128.49970151029237,0.212
513,1.5871845958937936,1020,1019.9932689181713,641,126.10400091762058,0.213
511,1.6084558813893006,1020,1019.9932590722946,638,122.79224123572934,0.214
511,1.5958026196139836,1020,1019.9932492215538,632,118.68494042797374,0.215
514,1.5581275764249578,1020,1019.9932393660027,627,113.9121939507616,0.216
518,1.4863175503919002,1020,1019.9932295056955,619,108.60851387479131,0.217
513,1.4203420910265199,1020,1019.9932196406861,611,102.90736135506017,0.218
513,1.4281140761445066,1020,1019.9932097710292,601,96.93570176525624,0.219
511,1.4600815380458014,1020,1019.9931998967799,592,90.80895101480989,0.22
510,1.4685076381449789,1020,1019.9931900179939,584,84.62668812757384,0.221
511,1.4843631236820427,1020,1019.9931801347269,577,78.4694750843986,0.222
510,1.5318504167621172,1020,1019.9931702470343,572,72.39704732306605,0.223
511,1.5474726520185287,1020,1019.9931603549716,568,66.44802228910213,0.224
511,1.5297998431160225,1020,1019.9931504585942,565,60.64113187926322,0.225
510,1.542236468394185,1020,1019.9931405579572,565,54.97783525112956,0.226
510,1.5549646105829524,1020,1019.993130653116,564,49.446030992835254,0.227
513,1.5504941348394758,1020,1019.9931207441263,561,44.024481795308866,0.228
513,1.544076716351129,1020,1019.9931108310428,557,38.68750771883878,0.229
511,1.514387977053695,1020,1019.9931009139212,551,33.40950536650768,0.23
512,1.4894232218732855,1020,1019.9930909928165,544,28.168906689280725,0.231
511,1.4568708577551455,1020,1019.9930810677841,537,22.951287742834683,0.232
511,1.4202888643886575,1020,1019.9930711388796,531,17.751453638992807,0.233
510,1.4759404301329364,1020,1019.9930612061593,524,12.574441592628123,0.234
510,1.6186286536889316,1020,1019.99305126968,517,7.4354858494866045,0.235
510,1.6964735079639022,1020,1019.9930413294986,511,2.35906983681316,0.236
507,1.7201336733623322,1020,1019.993031385672,504,-2.622750213717001,0.237
510,1.739519829970032,1020,1019.993021438257,499,-7.4725306281137875,0.238
508,1.7675301394294456,1020,1019.9930114873104,494,-12.149903454054295,0.239
509,1.790621677981392,1020,1019.9930015328886,489,-16.61409643987817,0.24
512,1.7797474096324568,1020,1019.992991575048,486,-20.826316854258234,0.241
512,1.7596753757221955,1020,1019.992981613845,482,-24.751846463225966,0.242
512,1.638937309337846,1020,1019.992971649336,480,-28.361741569719943,0.243
514,1.6393647532871938,1020,1019.9929616815774,477,-31.634079113526955,0.244
512,1.6538460125726957,1020,1019.9929517106256,474,-34.55473224144286,0.245
514,1.6597682167022731,1020,1019.9929417365369,472,-37.11769288482418,0.246
514,1.6443381389667593,1020,1019.9929317593677,471,-39.32498369848981,0.247
513,1.6484883062185516,1020,1019.992921779174,469,-41.18621821185269,0.248
512,1.6981170609732672,1020,1019.9929117960122,467,-42.71787717682563,0.249
510,1.6935164212072449,1020,1019.9929018099386,466,-43.942371023353736,0.25
510,1.7984910518283888,1020,1019.9928918210097,465,-44.886954049082455,0.251
512,1.8975588717206648,1020,1019.9928818292818,464,-45.58254819235739,0.252
510,1.9377977310829282,1020,1019.9928718348114,463,-46.06252576565204,0.253
510,1.9108942250794478,1020,1019.9928618376547,463,-46.36149290347665,0.254
509,1.954592415507468,1020,1019.9928518378682,463,-46.51410955799564,0.255
511,2.070760784560582,1020,1019.9928418355088,463,-46.55397816998625,0.256
513,2.115511503684015,1020,1019.9928318306337,463,-46.512631140821874,0.257
517,2.250809256076351,1020,1019.9928218233002,463,-46.41864549814475,0.258
519,2.307819954850752,1020,1019.9928118135662,463,-46.29691062240808,0.259
517,2.3344657457528513,1020,1019.9928018014897,464,-46.16807161975859,0.26
513,2.3382710427414035,1020,1019.992791787129,464,-46.04816728988855,0.261
509,2.3363958402030995,1020,1019.9927817705424,464,-45.94847727907602,0.262
509,2.285643562267004,1020,1019.9927717517879,465,-45.87558673259201,0.263
510,2.2747577352412596,1020,1019.9927617309244,464,-45.83166760587449,0.264
511,2.232099449284998,1020,1019.9927517080104,464,-45.81496380956527,0.265
510,2.1867829334467794,1020,1019.992741683105,464,-45.820453560039574,0.266
511,2.1877449090222956,1020,1019.9927316562674,463,-45.8406484825831,0.267
510,2.2892559505202463,1020,1019.9927216275568,463,-45.8664773381004,0.268
509,2.3731667960753127,1020,1019.9927115970326,463,-45.888194478893965,0.269
511,2.4532441538907204,1020,1019.9927015647544,462,-45.89625026670381,0.27
510,2.5180212338463117,1020,1019.9926915307818,462,-45.8820629965273,0.271
512,2.5112367273885887,1020,1019.992681495174,462,-45.83863927463022,0.272
507,2.47441849005248,1020,1019.99267145799,462,-45.76100225406851,0.273
511,2.4577547606297907,1020,1019.992661419289,463,-45.64640434065973,0.274
517,2.4596282657789765,1020,1019.99265137913,463,-45.49432151099418,0.275
517,2.433311656633968,1020,1019.9926413375728,464,-45.30624758489118,0.276
515,2.4735254828966204,1020,1019.9926312946772,465,-45.08532573649541,0.277
510,2.5413679968951626,1020,1019.9926212505032,465,-44.83586880377393,0.278
508,2.5828102414928473,1020,1019.9926112051106,466,-44.5628279011947,0.279
504,2.6133339329906655,1020,1019.9926011585593,466,-44.27126969160134,0.28
509,2.634424123300232,1020,1019.9925911109093,467,-43.96591684315682,0.281
503,2.6463883671395423,1020,1019.9925810622207,467,-43.65079496138853,0.282
509,2.63054659445688,1020,1019.9925710125534,466,-43.32901400433594,0.283
513,2.5521208134398274,1020,1019.9925609619676,467,-43.00269435146895,0.284
513,2.414840302736097,1020,1019.9925509105232,467,-42.67302968288243,0.285
512,2.3342614699983044,1020,1019.9925408582802,467,-42.34046342531207,0.286
510,2.4426868976046348,1020,1019.9925308052992,466,-42.00494423429805,0.287
510,2.5358060993608587,1020,1019.9925207516407,467,-41.666218899832,0.288
512,2.5458191719325383,1020,1019.9925106973654,467,-41.32411864226888,0.289
511,2.5157173042495895,1020,1019.9925006425345,467,-40.978798067817166,0.29
512,2.514937852820557,1020,1019.9924905872089,468,-40.63089498790237,0.291
517,2.487189501873447,1020,1019.9924805314494,468,-40.28159216605743,0.292
516,2.555382476255117,1020,1019.9924704753174,469,-39.93257681343499,0.293
518,2.548386460024813,1020,1019.9924604188744,470,-39.585908618512626,0.294
515,2.518551882234219,1020,1019.9924503621818,471,-39.243820506715814,0.295
510,2.5316777868666542,1020,1019.9924403053004,471,-38.908486061062646,0.296
510,2.5236808534619555,1020,1019.9924302482917,472,-38.58179153312558,0.297
512,2.535367447570947,1020,1019.9924201912175,472,-38.26514769327501,0.298
512,2.48787333853391,1020,1019.9924101341397,472,-37.95936823840993,0.299
511,2.5037697426675,1020,1019.9924000771201,472,-37.664629101371254,0.3
508,2.407341778529724,1020,1019.992390020221,472,-37.38050914604667,0.301
508,2.308203548739582,1020,1019.9923799635047,472,-37.10609979125145,0.302
508,2.279427325131051,1020,1019.9923699070345,472,-36.8401611212214,0.303
508,2.283200536227775,1020,1019.9923598508734,472,-36.58129614671538,0.304
508,2.2204707881906356,1020,1019.9923497950844,472,-36.32811337288673,0.305
510,2.105121351345542,1020,1019.9923397397305,472,-36.07935063534677,0.306
511,2.0782896057191866,1020,1019.992329684875,473,-35.83394008340679,0.307
510,1.9503558840866164,1020,1019.9923196305816,473,-35.591004659992265,0.308
511,1.897274729476662,1020,1019.9923095769135,474,-35.349789068384965,0.309
513,1.8564068905942532,1020,1019.9922995239334,475,-35.10954076942461,0.31
518,1.8455011707536757,1020,1019.9922894717041,475,-34.86936648532255,0.311
519,1.830547383424304,1020,1019.9922794202893,475,-34.628094904688254,0.312
514,1.8471292393956018,1020,1019.992269369753,476,-34.3841758504273,0.313
512,1.8749106710046357,1020,1019.992259320159,476,-34.135640839844314,0.314
511,1.9438486793426974,1020,1019.9922492715708,476,-33.88014147000112,0.315
512,1.964839740700858,1020,1019.9922392240522,476,-33.61507170638756,0.316
507,2.0175970621465975,1020,1019.9922291776664,477,-33.33776875240281,0.317
511,1.9415430047406754,1020,1019.9922191324771,476,-33.04577581399748,0.318
510,1.8447468240764335,1020,1019.9922090885474,476,-32.73713986434687,0.319
511,1.7501962767830195,1020,1019.9921990459414,476,-32.41070936861801,0.32
510,1.6940230009511172,1020,1019.9921890047234,476,-32.066392310644524,0.321
511,1.6880935996519277,1020,1019.9921789649578,476,-31.70533571309619,0.322
509,1.681843839107915,1020,1019.9921689267097,477,-31.32999515546144,0.323
511,1.7057231934161108,1020,1019.9921588900442,478,-30.944075838742915,0.324
510,1.7022441026336463,1020,1019.9921488550261,478,-30.552343347784706,0.325
513,1.7591167875550278,1020,1019.9921388217211,479,-30.160319327830134,0.326
513,1.7250543979028312,1020,1019.9921287901942,480,-29.77389192301063,0.327
512,1.664876523999537,1020,1019.9921187605108,481,-29.398881432843876,0.328
512,1.6068601891591647,1020,1019.992108732736,481,-29.040607477215264,0.329
511,1.5489307104600682,1020,1019.9920987069353,482,-28.703504104675964,0.33
513,1.4880831547657516,1020,1019.9920886831741,482,-28.39082318059097,0.331
512,1.4895141062590493,1020,1019.9920786615183,482,-28.10445486216682,0.332
511,1.4881247989100914,1020,1019.992068642034,482,-27.844878891009806,0.333
512,1.4919445572926984,1020,1019.9920586247875,482,-27.61124400631663,0.334
512,1.491905987076931,1020,1019.9920486098457,482,-27.401557219558054,0.335
512,1.4965716054967255,1020,1019.9920385972749,481,-27.21295188502431,0.336
509,1.3723156190780519,1020,1019.9920285871416,481,-27.041994787464684,0.337
509,1.2362981944686002,1020,1019.9920185795121,481,-26.88498911193808,0.338
507,1.185662451550272,1020,1019.9920085744533,481,-26.738233535532896,0.339
510,1.234032074712118,1020,1019.991998572032,482,-26.598208218553342,0.34
515,1.2401152405603395,1020,1019.9919885723156,483,-26.461674558343216,0.341
513,1.247658998028756,1020,1019.9919785753717,483,-26.32569366968661,0.342
511,1.1826410122441415,1020,1019.9919685812678,484,-26.18758435912815,0.343
510,1.180301346050235,1020,1019.991958590071,484,-26.04485138156556,0.344
510,1.1881893627623776,1020,1019.9919486018492,484,-25.895117656483805,0.345
510,1.1806247768687348,1020,1019.9919386166702,485,-25.736090610198133,0.346
512,1.1931222971087299,1020,1019.9919286346015,485,-25.565584532939816,0.347
513,1.2091668170566594,1020,1019.9919186557112,484,-25.381609204067225,0.348
512,1.280560159480775,1020,1019.9919086800668,484,-25.18252110043129,0.349
515,1.2790985854087213,1020,1019.9918987077366,484,-24.967219068881427,0.35
513,1.2723546348800931,1020,1019.9918887387893,484,-24.735354544798245,0.351
512,1.258237937166814,1020,1019.9918787732935,484,-24.487520024807786,0.352
512,1.2356168229630649,1020,1019.9918688113179,484,-24.22537916377034,0.353
511,1.2379092045500848,1020,1019.9918588529307,484,-23.951706567812156,0.354
512,1.2597705817587945,1020,1019.9918488982006,484,-23.670314189087737,0.355
510,1.2706401481103942,1020,1019.9918389471958,485,-23.385853894857778,0.356
511,1.2887247658827432,1020,1019.9918289999849,486,-23.103501876124206,0.357
513,1.3154742874225391,1020,1019.9918190566372,487,-22.82854849689591,0.358
512,1.3383343364444804,1020,1019.9918091172216,487,-22.565933733418486,0.359
513,1.3455827742858857,1020,1019.9917991818073,488,-22.31977975708966,0.36
511,1.3614549288181144,1020,1019.9917892504631,489,-22.092976261357883,0.361
511,1.3669817005240257,1020,1019.9917793232574,489,-21.886870748949093,0.362
511,1.3282611884484683,1020,1019.9917694002592,489,-21.701105849138035,0.363
509,1.3264409790062297,1020,1019.9917594815373,489,-21.53362942085329,0.364
512,1.3228600616323922,1020,1019.991749567161,488,-21.380882248594585,0.365
511,1.3057035536800397,1020,1019.9917396571994,488,-21.23814573863591,0.366
511,1.2348101658789494,1020,1019.9917297517221,488,-21.100012074447054,0.367
513,1.2201570107523805,1020,1019.9917198507991,488,-20.96092488680144,0.368
512,1.241189657733164,1020,1019.9917099545008,487,-20.815730868494065,0.369
511,1.2722793455174999,1020,1019.9917000628974,487,-20.660181471393308,0.37
510,1.295852059797455,1020,1019.9916901760588,487,-20.49132833709087,0.371
510,1.3053574261763183,1020,1019.9916802940546,487,-20.307766881252117,0.372
506,1.3827041608231998,1020,1019.9916704169549,488,-20.109699839622873,0.373
511,1.4544489980582864,1020,1019.9916605448301,489,-19.89881527174859,0.374
512,1.450442098712663,1020,1019.9916506777503,490,-19.67799826191211,0.375
511,1.4172768811264862,1020,1019.9916408157864,491,-19.450917945956114,0.376
511,1.4581331889087028,1020,1019.9916309590088,491,-19.221547131179133,0.377
512,1.6002308668488345,1020,1019.9916211074886,492,-18.993677812456326,0.378
514,1.7658732924532954,1020,1019.9916112612967,491,-18.77049207004464,0.379
512,1.9028628648356465,1020,1019.9916014205045,492,-18.554236269239233,0.38
515,1.9335948788325694,1020,1019.9915915851833,492,-18.34603044264131,0.381
513,1.9424566878642116,1020,1019.991581755405,492,-18.14582723823586,0.382
514,1.947426598295089,1020,1019.9915719312411,492,-17.95251755327148,0.383
512,1.9354919455877362,1020,1019.9915621127628,491,-17.76416349159844,0.384
514,1.979880639038249,1020,1019.9915523000417,491,-17.578324399078443,0.385
512,2.0286713184201393,1020,1019.991542493149,491,-17.392430486304995,0.386
512,2.111187233917344,1020,1019.9915326921567,491,-17.204153379553578,0.387
509,2.144479335803558,1020,1019.9915228971366,491,-17.01172498651389,0.388
508,2.1499317686789072,1020,1019.991513108161,491,-16.81416451251364,0.389
511,2.1190425051992006,1020,1019.9915033253018,492,-16.611386561098,0.39
512,2.1259967037474863,1020,1019.9914935486312,492,-16.40417936419671,0.391
511,2.1287170482794915,1020,1019.991483778222,493,-16.194059621918925,0.392
513,2.126497284462744,1020,1019.9914740141465,494,-15.98302697805952,0.393
515,2.1108642620000175,1020,1019.9914642564771,494,-15.773254375188134,0.394
514,2.1266251669065674,1020,1019.9914545052856,495,-15.566758345768706,0.395
514,2.160348385425541,1020,1019.9914447606433,495,-15.36509446093927,0.396
516,2.166728682039213,1020,1019.9914350226217,495,-15.169117680560605,0.397
517,2.1423613170363582,1020,1019.9914252912916,495,-14.978836475131967,0.398
512,2.0839568603579783,1020,1019.9914155667246,495,-14.793375398401365,0.399
510,2.0713205055737975,1020,1019.9914058489925,495,-14.611045707444855,0.4
508,2.0963108293468213,1020,1019.991396138167,495,-14.429509784826985,0.401
504,2.10739992919055,1020,1019.9913864343201,494,-14.246013817572052,0.402
503,2.148438322149916,1020,1019.9913767375232,494,-14.057655259947936,0.403
504,2.198994577798967,1020,1019.9913670478476,495,-13.861648234989117,0.404
510,2.199612940606071,1020,1019.9913573653643,495,-13.655552458780141,0.405
513,2.185341681524191,1020,1019.9913476901437,495,-13.437439166498642,0.406
513,2.1544857912842805,1020,1019.9913380222564,495,-13.205978440952142,0.407
512,2.1702887509458813,1020,1019.9913283617733,496,-12.960443814860081,0.408
515,2.181168587561668,1020,1019.9913187087653,497,-12.700641289755326,0.409
515,2.1641086779699292,1020,1019.9913090633034,497,-12.426780737185215,0.41
517,2.1547840900680235,1020,1019.991299425459,498,-12.13931638819893,0.411
513,2.140855439002688,1020,1019.9912897953035,498,-11.838787462842067,0.412
513,2.1932920863042673,1020,1019.9912801729087,499,-11.52568895172224,0.413
512,2.241584949993176,1020,1019.9912705583464,499,-11.200396760679617,0.414
513,2.239511477569694,1020,1019.991260951689,499,-10.86316192650568,0.415
512,2.260805939375473,1020,1019.9912513530093,499,-10.514176424014662,0.416
512,2.2791613232663224,1020,1019.9912417623804,499,-10.153699767872421,0.417
511,2.273467347023515,1020,1019.991232179875,499,-9.782223485032812,0.418
510,2.2628409880472447,1020,1019.991222605567,499,-9.400641901972227,0.419
509,2.2342489820911746,1020,1019.9912130395304,499,-9.010394014896256,0.42
510,2.279018026288775,1020,1019.9912034818398,499,-8.61354309301359,0.421
511,2.3939573470154736,1020,1019.9911939325697,500,-8.212768252536076,0.422
509,2.4564398849736944,1020,1019.9911843917947,501,-7.811255160200069,0.423
512,2.4122993064623417,1020,1019.9911748595899,502,-7.412489679756153,0.424
513,2.430901392776757,1020,1019.9911653360299,502,-7.019975426639652,0.425
513,2.4366894368349326,1020,1019.9911558211896,504,-6.63691003934733,0.426
514,2.3912440482102193,1020,1019.9911463151446,504,-6.265862970304527,0.427
515,2.2608491717607504,1020,1019.99113681797,504,-5.90849894979815,0.428
513,2.1908344659102634,1020,1019.9911273297406,505,-5.565386179103313,0.429
512,2.125823989782662,1020,1019.9911178505316,505,-5.235917834218661,0.43
510,2.0900232178688993,1020,1019.991108380418,505,-4.918361617017885,0.431
509,2.076235854621712,1020,1019.9910989194744,505,-4.6100368821360735,0.432
509,2.064037977491939,1020,1019.9910894677759,505,-4.307603775155543,0.433
512,2.056764304833597,1020,1019.9910800253973,505,-4.007435386483455,0.434
512,2.044072938637039,1020,1019.9910705924134,505,-3.7060338318988495,0.435
512,1.9920193212574997,1020,1019.9910611688987,505,-3.4004455206444995,0.436
508,1.9226535257205957,1020,1019.9910517549278,505,-3.088630026148762,0.437
507,1.9083368474361493,1020,1019.9910423505747,505,-2.76974096109083,0.438
507,1.8990953928794359,1020,1019.9910329559137,506,-2.4442860050885415,0.439
510,1.885937659063677,1020,1019.9910235710194,506,-2.1141463252352586,0.44
510,1.8810068931963486,1020,1019.9910141959662,507,-1.7824518316891094,0.441
511,1.919086744817766,1020,1019.9910048308287,508,-1.4533258992229172,0.442
512,1.973110716108682,1020,1019.9909954756816,508,-1.1315289307011616,0.443
513,1.9736225012920547,1020,1019.990986130599,510,-0.822042284975436,0.444
516,1.9638320915855552,1020,1019.9909767956545,510,-0.529640932622353,0.445
519,1.9149208238517192,1020,1019.9909674709219,510,-0.2585034762282819,0.446
519,1.8960827779011336,1020,1019.9909581564742,510,-0.011901352673693489,0.447
514,1.8852239238945308,1020,1019.9909488523848,510,0.20800378548085216,0.448
510,1.8624264217096107,1020,1019.9909395587273,510,0.4002412787653967,0.449
509,1.8673876383492727,1020,1019.9909302755758,510,0.5649931988751529,0.45
510,1.8529863567798912,1020,1019.9909210030049,510,0.7034509839834725,0.451
510,1.8773961841817348,1020,1019.9909117410892,510,0.8175905129635405,0.452
506,1.8631490084344935,1020,1019.9909024899033,510,0.9098953035553382,0.453
507,1.811277287168683,1020,1019.9908932495222,510,0.9830609925043633,0.454
511,1.8327933903434608,1020,1019.9908840200204,509,1.0397153614821693,0.455
510,1.8773751283810332,1020,1019.9908748014731,509,1.0821868515450794,0.456
511,1.980613571701757,1020,1019.9908655939547,509,1.1123499214061723,0.457
512,1.9868763213857443,1020,1019.9908563975399,510,1.1315664848643938,0.458
513,1.9563116329909844,1020,1019.9908472123028,510,1.140728908447503,0.459
513,1.9899160348334013,1020,1019.990838038318,511,1.140394017217685,0.46
512,1.9737314936404535,1020,1019.9908288756604,511,1.1309832281101728,0.461
513,1.9830471640754694,1020,1019.9908197244052,511,1.1130147304510511,0.462
511,1.9447477538988522,1020,1019.9908105846279,511,1.0873310056726129,0.463
512,1.8976625557728886,1020,1019.9908014564033,511,1.055288321364903,0.464
510,1.858411811271126,1020,1019.9907923398072,511,1.0188822699194686,0.465
509,1.8915241546914898,1020,1019.9907832349139,511,0.9807929753886597,0.466
508,1.9131289780968948,1020,1019.9907741417982,511,0.9443440820764534,0.467
511,1.925055474865063,1020,1019.9907650605345,510,0.9133806170311265,0.468
510,1.9349367529791297,1020,1019.9907559911975,510,0.8920818046811694,0.469
511,1.9210457924096722,1020,1019.9907469338622,509,0.8847346224868275,0.47
512,1.8366996876337351,1020,1019.990737888604,509,0.8955001781612988,0.471
511,1.687384526836368,1020,1019.9907288554981,509,0.9282057430795467,0.472
513,1.5806942003975881,1020,1019.9907198346199,510,0.9861895799310897,0.473
511,1.5510837308982328,1020,1019.9907108260444,510,1.0722146141685562,0.474
511,1.5286205094280045,1020,1019.9907018298467,510,1.1884534850451685,0.475
508,1.51385167326556,1020,1019.9906928461018,511,1.3365350856248737,0.476
510,1.5118740573911105,1020,1019.9906838748847,511,1.5176335298194452,0.477
511,1.4952505480833977,1020,1019.9906749162705,512,1.7325750336173795,0.478
515,1.3963742133028691,1020,1019.9906659703341,512,1.9819365245278058,0.479
513,1.3340398631696568,1020,1019.9906570371508,512,2.2661122575686687,0.48
518,1.3560079371791895,1020,1019.9906481167949,513,2.5853312811195717,0.481
514,1.3360529994818828,1020,1019.9906392093407,512,2.9396181893653432,0.482
511,1.3578156588509478,1020,1019.9906303148622,513,3.3287004745552116,0.483
513,1.372254916853067,1020,1019.9906214334336,513,3.7518761924249984,0.484
511,1.3339860896383475,1020,1019.9906125651286,513,4.207864111492414,0.485
512,1.3340775893822014,1020,1019.9906037100208,513,4.694664046969768,0.486
510,1.328255786119699,1020,1019.9905948681838,513,5.209457073905046,0.487
509,1.3301210091689935,1020,1019.990586039691,514,5.748572963226075,0.488
509,1.3416262852882912,1020,1019.9905772246165,515,6.307544611010499,0.489
508,1.3475042407619726,1020,1019.9905684230338,515,6.881256793888819,0.49
509,1.349563205880469,1020,1019.9905596350162,517,7.4641815300633345,0.491
510,1.3263664897470848,1020,1019.990550860637,518,8.050677677887451,0.492
510,1.3155785568257437,1020,1019.9905420999688,519,8.635320777794943,0.493
510,1.3144889103130963,1020,1019.9905333530845,519,9.213222798447774,0.494
511,1.3007562318085018,1020,1019.9905246200573,520,9.78030198665085,0.495
511,1.3034890207042618,1020,1019.9905159009608,521,10.333470089831913,0.496
514,1.305064894825136,1020,1019.9905071958686,521,10.870715627600493,0.497
512,1.3178153617400514,1020,1019.9904985048546,521,11.39107560265324,0.498
512,1.320595750287581,1020,1019.9904898279918,521,11.894502951877234,0.499
512,1.3134915912538867,1020,1019.990481165354,521,12.38165154699254,0.5
513,1.2971139924376105,1020,1019.9904725170148,521,12.853611863993825,0.501
511,1.2681060022697546,1020,1019.9904638830475,522,13.311635908955793,0.502
512,1.289875383089964,1020,1019.9904552635252,522,13.75688865238668,0.503
510,1.357460790226381,1020,1019.9904466585207,523,14.190256093338325,0.504
510,1.3228046157554285,1020,1019.9904380681063,523,14.612229410243806,0.505
511,1.3159672708495516,1020,1019.9904294923548,524,15.022872785573357,0.506
510,1.245960041431356,1020,1019.9904209313394,524,15.421870915752098,0.507
510,1.2253527026470583,1020,1019.9904123851328,526,15.808641660892022,0.508
511,1.2889385288715993,1020,1019.9904038538078,526,16.182490462017842,0.509
513,1.2684231837618507,1020,1019.9903953374377,526,16.54277740011584,0.51
512,1.3920727183928299,1020,1019.990386836096,527,16.889066594865184,0.511
513,1.4541282162963476,1020,1019.9903783498561,527,17.22123123357931,0.512
512,1.4618539513440416,1020,1019.9903698787915,528,17.53949441256676,0.513
511,1.4198707583778596,1020,1019.990361422976,528,17.844394680720526,0.514
512,1.4295594013198023,1020,1019.9903529824822,527,18.136675381392386,0.515
510,1.4102340295769293,1020,1019.9903445573826,528,18.417108385460274,0.516
509,1.4575829654181205,1020,1019.9903361477494,528,18.68627402917766,0.517
511,1.5826294994593615,1020,1019.9903277536545,527,18.944327622866908,0.518
511,1.626633921397845,1020,1019.9903193751701,528,19.190787334228066,0.519
511,1.6603685176419485,1020,1019.9903110123677,527,19.42437831551108,0.52
511,1.7383339110089808,1020,1019.9903026653182,528,19.642963401329844,0.521
512,1.804645467640867,1020,1019.9902943340925,528,19.84358128847749,0.522
513,1.7706447647033436,1020,1019.990286018762,529,20.022599533086144,0.523
511,1.8118271949927522,1020,1019.9902777193987,529,20.175973952843496,0.524
512,1.8601631621608181,1020,1019.9902694360738,530,20.299590781385298,0.525
512,1.901546441898529,1020,1019.9902611688584,530,20.389655671789424,0.526
515,1.910265935084977,1020,1019.9902529178229,531,20.443086022868634,0.527
515,1.9137016872327814,1020,1019.9902446830373,531,20.457860948883187,0.528
513,1.9085823020348536,1020,1019.9902364645717,531,20.433286985523694,0.529
509,1.9219527676912644,1020,1019.9902282624965,530,20.370147323387876,0.53
509,1.9566496824063357,1020,1019.9902200768823,530,20.27071681792196,0.531
509,2.086623049096558,1020,1019.9902119077991,530,20.138641489885195,0.532
508,2.1835978695295815,1020,1019.9902037553164,529,19.97869641924636,0.533
512,2.230757632510041,1020,1019.9901956195039,529,19.7964478497455,0.534
518,2.269594965402155,1020,1019.9901875004306,529,19.597853650326268,0.535
515,2.255542074435536,1020,1019.9901793981657,528,19.388841328114378,0.536
513,2.2389035816377345,1020,1019.9901713127787,527,19.17490481391955,0.537
511,2.2343473840211074,1020,1019.9901632443388,527,18.960760210103814,0.538
509,2.2335186325854712,1020,1019.990155192915,527,18.750095740484646,0.539
509,2.2662070015792324,1020,1019.9901471585757,527,18.545441176426184,0.54
507,2.265158875581521,1020,1019.9901391413895,527,18.34816758920866,0.541
504,2.25091779468828,1020,1019.990131141425,527,18.158612023168615,0.542
508,2.257493058227182,1020,1019.9901231587509,527,17.976306474981666,0.543
514,2.3336507111627247,1020,1019.9901151934354,528,17.800278063426237,0.544
516,2.3958822359330183,1020,1019.9901072455467,528,17.62937834171604,0.545
515,2.4536134976209825,1020,1019.9900993151535,528,17.462595522910302,0.546
511,2.4525017568971004,1020,1019.9900914023245,528,17.299305523391922,0.547
508,2.4541093424555274,1020,1019.9900835071284,527,17.139426836996794,0.548
509,2.4387070436762284,1020,1019.9900756296337,527,16.983458967125696,0.549
508,2.476689332060944,1020,1019.9900677699087,527,16.83240149461835,0.55
510,2.5002204905440153,1020,1019.9900599280217,526,16.68756780603527,0.551
511,2.4832558248798375,1020,1019.9900521040403,525,16.55032218620624,0.552
512,2.4464634273436454,1020,1019.9900442980319,525,16.421780413143026,0.553
513,2.3905680171072454,1020,1019.9900365100642,524,16.30252080292042,0.554
515,2.4133669062269667,1020,1019.990028740205,524,16.19235300105336,0.555
518,2.395386469587646,1020,1019.9900209885217,524,16.090184830901734,0.556
518,2.349654512323488,1020,1019.9900132550819,524,15.994013988172814,0.557
515,2.309359941929729,1020,1019.9900055399538,525,15.901053320413778,0.558
514,2.3055845808040343,1020,1019.9899978432057,525,15.807978652992217,0.559
512,2.3495085521187318,1020,1019.9899901649054,525,15.71126991599595,0.56
512,2.2345849753888882,1020,1019.9899825051206,526,15.607602654148863,0.561
510,2.182566567533084,1020,1019.989974863919,526,15.494239549481113,0.562
511,2.1986105780854723,1020,1019.9899672413684,526,15.3693708150642,0.563
509,2.2188321282465004,1020,1019.989959637537,526,15.232358284069724,0.564
511,2.19231507502251,1020,1019.9899520524926,525,15.083850370398336,0.565
512,2.1524144583203557,1020,1019.9899444863034,525,14.925752229730161,0.566
509,2.0668198134835367,1020,1019.9899369390381,524,14.761054522278675,0.567
507,1.9733064399822802,1020,1019.9899294107653,524,14.593541993030938,0.568
508,1.9754194412080546,1020,1019.9899219015532,523,14.427417224461395,0.569
508,1.9995959284929616,1020,1019.9899144114701,523,14.266884132021517,0.57
511,1.9803739021087299,1020,1019.9899069405845,522,14.115739684453636,0.571
512,1.9276281991163244,1020,1019.9898994889653,521,13.977020833978418,0.572
511,1.9607872649062552,1020,1019.989892056681,522,13.852746431128303,0.573
513,1.9136790756090643,1020,1019.9898846437999,523,13.743780649170104,0.574
513,1.8968141842588955,1020,1019.9898772503897,523,13.649826278097573,0.575
511,1.846273034335711,1020,1019.9898698765181,523,13.569537152656387,0.576
513,1.868920912863855,1020,1019.9898625222526,523,13.50072420397993,0.577
512,1.919925115533617,1020,1019.9898551876603,523,13.440621920240453,0.578
514,1.9323555138208355,1020,1019.9898478728086,523,13.386180326602696,0.579
512,1.9420499893655634,1020,1019.9898405777657,523,13.334349421717814,0.58
512,1.9118236247444147,1020,1019.9898333025993,523,13.282326637789687,0.581
511,1.7901470074902948,1020,1019.9898260473773,524,13.227742764416789,0.582
508,1.741396984424688,1020,1019.9898188121668,524,13.168768129519496,0.583
508,1.6722900036043913,1020,1019.9898115970349,523,13.104129695230288,0.584
512,1.6726599544373664,1020,1019.9898044020482,522,13.03304221649786,0.585
510,1.6771713536250936,1020,1019.9897972272737,521,12.955071858031292,0.586
509,1.6929731750031378,1020,1019.9897900727782,521,12.869964590562013,0.587
510,1.7048748423173523,1020,1019.9897829386285,521,12.77747900727212,0.588
510,1.703581364935584,1020,1019.9897758248916,521,12.677261148756635,0.589
511,1.6852739679992028,1020,1019.9897687316346,521,12.568788844040101,0.59
511,1.7139659362923423,1020,1019.989761658925,521,12.451398710239845,0.591
514,1.773287007872456,1020,1019.9897546068299,521,12.324393729228511,0.592
515,1.7415409504639794,1020,1019.9897475754168,522,12.187215148646494,0.593
515,1.6800268003746255,1020,1019.9897405647529,522,12.039650429832424,0.594
515,1.6307886736682224,1020,1019.989733574905,522,11.882040526324662,0.595
512,1.607432233607335,1020,1019.9897266059405,523,11.715446817721785,0.596
514,1.6419058642241826,1020,1019.9897196579267,522,11.541741883001025,0.597
512,1.6622265461792491,1020,1019.9897127309308,521,11.36359898157954,0.598
510,1.6644098118311084,1020,1019.9897058250202,521,11.18437111111645,0.599
510,1.6416859358265528,1020,1019.9896989402622,520,11.007868628775766,0.6
509,1.6212218853512703,1020,1019.989692076724,520,10.838060537769458,0.601
508,1.6423689882271415,1020,1019.9896852344726,519,10.678735680003708,0.602
511,1.6463641648820724,1020,1019.9896784135743,519,10.533165417227247,0.603
509,1.6867537628476754,1020,1019.9896716140955,518,10.40380920253492,0.604
510,1.670182406880885,1020,1019.9896648361026,519,10.292098996369225,0.605
512,1.6718857625663972,1020,1019.9896580796616,519,10.198328177750525,0.606
515,1.6735947491761352,1020,1019.9896513448388,519,10.121656893906458,0.607
512,1.6844932028045867,1020,1019.989644631701,519,10.060231407811203,0.608
509,1.6427585216815108,1020,1019.9896379403148,519,10.01140265563834,0.609
511,1.5917329988783162,1020,1019.9896312707468,519,9.972019968965581,0.61
510,1.6332382687776585,1020,1019.9896246230641,520,9.938769213346358,0.611
514,1.636297987541091,1020,1019.9896179973329,520,9.908519918048283,0.612
510,1.6075307135373855,1020,1019.9896113936187,520,9.878643988926408,0.613
511,1.5860540793718803,1020,1019.9896048119866,520,9.847270762782134,0.614
513,1.5855285498172436,1020,1019.9895982525012,520,9.81345018965161,0.615
516,1.582286179842598,1020,1019.989591715227,520,9.777206903174164,0.616
512,1.5927999261280903,1020,1019.9895852002286,519,9.739481074656473,0.617
511,1.5630973352601736,1020,1019.989578707571,519,9.701965589293517,0.618
510,1.4976758086658397,1020,1019.9895722373193,519,9.666861589167825,0.619
510,1.4353049855389513,1020,1019.989565789538,518,9.636583984783266,0.62
509,1.4568088217829183,1020,1019.9895593642913,518,9.613453866586141,0.621
510,1.589219107858996,1020,1019.9895529616427,518,9.59941545511119,0.622
512,1.5776465742924575,1020,1019.9895465816556,518,9.595811269470396,0.623
511,1.5655417432833685,1020,1019.9895402243932,518,9.603240874016013,0.624
511,1.5519566641520197,1020,1019.9895338899186,518,9.621517062589549,0.625
513,1.6063839739109935,1020,1019.989527578295,519,9.649720360439671,0.626
513,1.6306111260486296,1020,1019.9895212895862,519,9.686339782540669,0.627
515,1.7043361091832125,1020,1019.9895150238548,519,9.729476391958281,0.628
513,1.8097861047866322,1020,1019.9895087811641,520,9.777078029622665,0.629
513,1.8197092558666317,1020,1019.9895025615773,520,9.827169778297975,0.63
511,1.8053057415958529,1020,1019.9894963651581,521,9.878045591882817,0.631
511,1.8016083764308515,1020,1019.9894901919696,520,9.928392317122178,0.632
513,1.731748434788613,1020,1019.9894840420747,520,9.977328364478565,0.633
511,1.7753923966913285,1020,1019.989477915536,519,10.024354618066344,0.634
509,1.769443155440089,1020,1019.9894718124159,519,10.069231768296957,0.635
510,1.7996136800983844,1020,1019.9894657327767,519,10.111812018738354,0.636
511,1.8766221661204245,1020,1019.9894596766807,518,10.151861060502794,0.637
511,1.872000292280294,1020,1019.9894536441897,518,10.188907478245872,0.638
513,1.8627442359002337,1020,1019.9894476353651,518,10.222151784765588,0.639
511,1.8651313399008835,1020,1019.9894416502683,519,10.250456553049466,0.64
511,1.8484490075002267,1020,1019.9894356889603,519,10.272423554033784,0.641
510,1.785772876398914,1020,1019.9894297515015,520,10.28654602325062,0.642
512,1.7717847104415398,1020,1019.9894238379524,521,10.291408151739926,0.643
512,1.8017033186347626,1020,1019.9894179483734,521,10.285893378523092,0.644
516,1.832755616986351,1020,1019.9894120828243,521,10.269360618413511,0.645
519,1.8201686867546938,1020,1019.989406241364,520,10.241754141934145,0.646
513,1.8009670917471459,1020,1019.9894004240517,520,10.203626944850972,0.647
512,1.810924983050537,1020,1019.989394630947,519,10.156075061916706,0.648
510,1.8222986153732403,1020,1019.9893888621099,519,10.100596517331475,0.649
508,1.8359623118200523,1020,1019.9893831175999,519,10.038899944675176,0.65
507,1.8653565406590633,1020,1019.9893773974767,519,9.972693141906012,0.651
505,1.8519862028087364,1020,1019.9893717017998,519,9.90348181747276,0.652
505,1.8416641460814003,1020,1019.9893660306287,518,9.83240558160045,0.653
509,1.8081216325896794,1020,1019.9893603840227,518,9.760133596456114,0.654
512,1.7779202086021715,1020,1019.9893547620408,518,9.686836378055636,0.655
512,1.7619688161245852,1020,1019.9893491647416,518,9.61224189766407,0.656
511,1.7902543264260204,1020,1019.9893435921839,519,9.535772744154654,0.657
514,1.8103315216897808,1020,1019.9893380444258,519,9.456748007611507,0.658
513,1.7995901495574396,1020,1019.9893325215252,519,9.374621644351452,0.659
514,1.8146203255250506,1020,1019.9893270235397,519,9.289221295237631,0.66
516,1.8254910996823133,1020,1019.989321550527,520,9.200949220056664,0.661
513,1.8409431817638948,1020,1019.9893161025451,520,9.110909880194894,0.662
511,1.8926072581034386,1020,1019.9893106796516,519,9.020936246061643,0.663
510,1.9282149791710963,1020,1019.9893052819046,519,8.933499177527981,0.664
510,1.9150443599931273,1020,1019.9892999093616,519,8.851500420261814,0.665
512,1.9305320627626135,1020,1019.9892945620799,518,8.777967215418448,0.666
511,1.9247279989031056,1020,1019.9892892401161,517,8.71568218613684,0.667
514,1.9009228410774623,1020,1019.9892839435273,517,8.666793966272438,0.668
514,1.9233814429670757,1020,1019.9892786723702,517,8.632460235739117,0.669
510,1.9881821142822578,1020,1019.9892734267013,516,8.61257385416844,0.67
510,1.9485480326570055,1020,1019.9892682065764,517,8.60561454512379,0.671
509,1.8729066621640664,1020,1019.9892630120511,516,8.60865464043674,0.672
510,1.8917861540314864,1020,1019.9892578431803,517,8.617529626930189,0.673
513,1.8901615897691775,1020,1019.9892527000192,518,8.627164258898484,0.674
513,1.8919934038626023,1020,1019.9892475826226,518,8.632024810363108,0.675
511,1.8504383115683352,1020,1019.9892424910453,519,8.626650564306003,0.676
510,1.7923819360574107,1020,1019.9892374253412,519,8.606206128807457,0.677
513,1.7326386849007933,1020,1019.9892323855646,519,8.566992749874908,0.678
511,1.7345362695085715,1020,1019.9892273717691,519,8.506861549477822,0.679
511,1.7761631940469766,1020,1019.9892223840083,519,8.425483029045976,0.68
513,1.8224762391253655,1020,1019.9892174223359,519,8.324443038359078,0.681
513,1.8478649595781682,1020,1019.9892124868046,518,8.207153710153438,0.682
512,1.858634391965652,1020,1019.9892075774668,518,8.078587135446275,0.683
510,1.8372076223814255,1020,1019.9892026943743,517,7.944858334661909,0.684
508,1.8924716635007186,1020,1019.9891978375784,517,7.812700408002831,0.685
509,1.992695369369623,1020,1019.9891930071302,516,7.688886694373553,0.686
508,2.025898825830744,1020,1019.9891882030801,515,7.579661121038016,0.687
509,2.128303558039717,1020,1019.989183425478,515,7.490237953341467,0.688
512,2.1867350506269005,1020,1019.9891786743741,515,7.424425010353268,0.689
510,2.16233471083126,1020,1019.9891739498179,515,7.384409614526762,0.69
512,2.172235045794536,1020,1019.9891692518585,516,7.3707252682719355,0.691
511,2.2418931698686397,1020,1019.989164580545,516,7.382392434494316,0.692
513,2.291681168236002,1020,1019.9891599359265,518,7.417202824309774,0.693
515,2.3010817432418906,1020,1019.9891553180518,518,7.472097092513334,0.694
514,2.2832148788336144,1020,1019.9891507269698,518,7.543574191199108,0.695
515,2.318979935077201,1020,1019.9891461627298,519,7.62806912241947,0.696
514,2.3653186767461585,1020,1019.9891416253807,519,7.722244546570342,0.697
511,2.331562672390766,1020,1019.9891371149714,518,7.823158595730592,0.698
510,2.3157585504131895,1020,1019.98913263155,518,7.928293496333533,0.699
510,2.2926412121101367,1020,1019.9891281751642,517,8.035454073513277,0.7
510,2.2901869407759605,1020,1019.9891237458618,517,8.142567895350112,0.701
508,2.3109115623194825,1020,1019.9891193436905,516,8.247435661750345,0.702
505,2.307067820003816,1020,1019.9891149686981,516,8.347488874507526,0.703
507,2.306730365918727,1020,1019.9891106209319,516,8.43961099581823,0.704
508,2.3448380997796083,1020,1019.9891063004387,516,8.520068512841501,0.705
510,2.3456379670324154,1020,1019.9891020072649,517,8.584580964839377,0.706
512,2.30785183477248,1020,1019.9890977414565,517,8.628536706209035,0.707
513,2.286564454814478,1020,1019.9890935030593,518,8.647337521228197,0.708
516,2.291068190011572,1020,1019.9890892921184,519,8.636833844616197,0.709
519,2.279721060946958,1020,1019.9890851086783,519,8.593796465507143,0.71
518,2.2568690159944085,1020,1019.9890809527836,519,8.516362658883464,0.711
518,2.2796437191738472,1020,1019.9890768244785,519,8.404395938399013,0.712
515,2.22839719526221,1020,1019.989072723807,519,8.259708304299409,0.713
511,2.204733905577794,1020,1019.9890686508132,519,8.086109506607816,0.714
510,2.2107529774614267,1020,1019.9890646055413,518,7.889266920912529,0.715
507,2.1952952959903502,1020,1019.9890605880345,518,7.67638052129222,0.716
509,2.18891134891479,1020,1019.9890565983354,516,7.455698706822811,0.717
508,2.204080539435446,1020,1019.9890526364869,516,7.235920150054925,0.718
510,2.192327714339693,1020,1019.9890487025317,515,7.025541371080108,0.719
508,2.1480103020564267,1020,1019.9890447965121,515,6.832216663331574,0.72
508,2.116253705969366,1020,1019.9890409184699,515,6.662195202619817,0.721
512,2.0477914436954587,1020,1019.9890370684465,514,6.519890773008625,0.722
511,2.014371512201588,1020,1019.9890332464832,514,6.407624932578897,0.723
511,2.0150968852806095,1020,1019.9890294526216,514,6.325566524762554,0.724
513,2.009273729255176,1020,1019.9890256869029,515,6.271869883448781,0.725
513,1.9873350231978408,1020,1019.9890219493685,516,6.242991561638967,0.726
512,1.9634689414751771,1020,1019.9890182400603,517,6.234143525400057,0.727
513,1.918806193588266,1020,1019.9890145590201,517,6.239824131328542,0.728
513,1.7969175287565355,1020,1019.9890109062898,516,6.254361295465276,0.729
511,1.7159110628081629,1020,1019.9890072819111,517,6.272406452369121,0.73
511,1.6556895205127407,1020,1019.9890036859255,517,6.289330534341316,0.731
512,1.6270277396285477,1020,1019.9890001183738,516,6.3014898177668375,0.732
510,1.6460914023242281,1020,1019.9889965792967,516,6.306347032593943,0.733
512,1.6755315643553763,1020,1019.9889930687335,516,6.302450268320479,0.734
509,1.5950928072776411,1020,1019.9889895867235,516,6.28928754291213,0.735
508,1.4646405708264114,1020,1019.9889861333053,515,6.267046984303383,0.736
512,1.362947144342802,1020,1019.9889827085175,515,6.23632107532672,0.737
512,1.231554841084864,1020,1019.9889793123983,514,6.197798456071392,0.738
512,1.1698863392276182,1020,1019.9889759449856,514,6.151987522983333,0.739
511,1.1901211689304194,1020,1019.9889726063169,514,6.099011055011921,0.74
511,1.1719561682986062,1020,1019.9889692964301,515,6.038499787522542,0.741
512,1.1052796014450017,1020,1019.9889660153625,515,5.969596664874323,0.742
512,1.0677820274030476,1020,1019.9889627631509,515,5.8910658123515205,0.743
513,1.0615388381210835,1020,1019.9889595398316,515,5.80148499376001,0.744
512,1.065302102035245,1020,1019.9889563454407,516,5.699489786842277,0.745
511,1.0789531376730652,1020,1019.9889531800135,516,5.584032111238945,0.746
510,1.0644274953306627,1020,1019.9889500435851,516,5.454614854406796,0.747
511,1.0886292494199303,1020,1019.98894693619,515,5.311468740062342,0.748
510,1.095964681364926,1020,1019.988943857862,515,5.155647425439463,0.749
511,1.1279225629917466,1020,1019.9889408086336,515,4.989030179549614,0.75
511,1.1189919190565625,1020,1019.9889377885373,514,4.81423516018331,0.751
510,1.187002002253638,1020,1019.9889347976058,514,4.634457979066139,0.752
511,1.237281672349993,1020,1019.9889318358722,513,4.453259207713456,0.753
512,1.2649554486542722,1020,1019.9889289033698,512,4.274330299401279,0.754
511,1.2958150186777506,1020,1019.9889260001313,513,4.101268991548601,0.755
511,1.289733203853793,1020,1019.988923126189,513,3.9373914954064886,0.756
513,1.3612226528070386,1020,1019.9889202815747,512,3.7856000708380426,0.757
514,1.4244042859956532,1020,1019.9889174663198,513,3.6483134060095908,0.758
511,1.478169201489943,1020,1019.9889146804547,513,3.52745649072816,0.759
510,1.5377471625542547,1020,1019.98891192401,513,3.4244979051917723,0.76
513,1.5171603651815082,1020,1019.9889091970166,513,3.3405162850661108,0.761
511,1.5007564731805987,1020,1019.9889064995049,513,3.27627493445539,0.762
512,1.5840907878350878,1020,1019.9889038315054,513,3.232284386693676,0.763
512,1.7366382732387882,1020,1019.988901193048,513,3.208836363485476,0.764
511,1.8995766417495978,1020,1019.9888985841629,513,3.2059979911716288,0.765
510,2.0239362579850813,1020,1019.9888960048801,513,3.223561621200711,0.766
511,2.0211178797386826,1020,1019.9888934552295,513,3.2609527708760715,0.767
508,2.0798201733675374,1020,1019.9888909352406,513,3.3171062008466854,0.768
510,2.0790246185958914,1020,1019.9888884449437,512,3.3903275673263513,0.769
507,2.0622252367693785,1020,1019.988885984368,512,3.478164672555811,0.77
509,2.0569248643354134,1020,1019.9888835535434,512,3.5773165830860014,0.771
509,2.050295882480473,1020,1019.9888811524983,512,3.683608852157785,0.772
511,2.0818352809809424,1020,1019.9888787812605,512,3.7920577041062056,0.773
513,2.0964403407691194,1020,1019.9888764398578,512,3.897035961791845,0.774
513,2.0863429296566,1020,1019.9888741283179,513,3.992540327168642,0.775
516,2.0813155237301917,1020,1019.9888718466681,513,4.072544928657331,0.776
515,2.1322181073144835,1020,1019.9888695949347,514,4.131411535986904,0.777
514,2.121511194643702,1020,1019.9888673731438,515,4.16431482952634,0.778
515,2.130770327288679,1020,1019.9888651813202,515,4.167634216735186,0.779
511,2.1182396487230726,1020,1019.988863019489,515,4.139264175606488,0.78
515,2.128464223995645,1020,1019.9888608876748,514,4.0788040381623025,0.781
515,2.1387899232695196,1020,1019.9888587859022,514,3.9876042406039733,0.782
515,2.1443643935149894,1020,1019.9888567141955,513,3.8686655803311134,0.783
515,2.098164172050023,1020,1019.9888546725796,513,3.726406340760874,0.784
510,2.129962185123157,1020,1019.9888526610783,513,3.566326040436102,0.785
509,2.1978071732638886,1020,1019.9888506797155,512,3.394603036728629,0.786
506,2.2164344642964138,1020,1019.9888487285142,512,3.217666961494235,0.787
503,2.2410522665596635,1020,1019.9888468074972,511,3.041787059391613,0.788
502,2.2425189110752264,1020,1019.9888449166864,511,2.8727141963501452,0.789
505,2.2268994919282985,1020,1019.9888430561031,511,2.7154070355705433,0.79
511,2.2260154863867663,1020,1019.9888412257686,512,2.5738614154032646,0.791
515,2.2387749132388706,1020,1019.988839425704,511,2.4510476007716537,0.792
512,2.2414761502667826,1020,1019.9888376559301,512,2.348945628720514,0.793
512,2.2292978766518434,1020,1019.9888359164678,512,2.268657286233175,0.794
512,2.237337636494724,1020,1019.9888342073381,512,2.2105657776509458,0.795
511,2.179820828493845,1020,1019.9888325285609,512,2.1745110496243325,0.796
514,2.1532598094867352,1020,1019.9888308801559,513,2.1599498817217273,0.797
512,2.151820545282618,1020,1019.9888292621425,512,2.1660748965821406,0.798
512,2.1427049224033587,1020,1019.9888276745404,512,2.191875121130068,0.799
511,2.1405348442395957,1020,1019.9888261173691,512,2.236131910596486,0.8
509,2.147642686097832,1020,1019.988824590648,512,2.297356369882113,0.801
510,2.0685577978175917,1020,1019.9888230943969,511,2.373685730251326,0.802
512,2.069781936116377,1020,1019.9888216286353,511,2.4627648703520792,0.803
511,2.066958580320864,1020,1019.9888201933821,511,2.5616442786612583,0.804
512,2.009048210303299,1020,1019.9888187886557,511,2.6667260796950227,0.805
512,2.014602054271828,1020,1019.9888174144738,511,2.773784598281966,0.806
513,1.9678846186181567,1020,1019.9888160708537,511,2.878078043062564,0.807
512,1.9086145786096411,1020,1019.988814757813,512,2.974554875266204,0.808
513,1.857679190422999,1020,1019.98881347537,512,3.0581438707483715,0.809
516,1.8034110692434457,1020,1019.9888122235419,513,3.1241024912877124,0.81
513,1.806099137061423,1020,1019.9888110023456,513,3.168386200292937,0.811
513,1.7978628091923703,1020,1019.988809811798,514,3.187994031501795,0.812
511,1.7044414001130568,1020,1019.9888086519153,514,3.1812445119147026,0.813
512,1.5557873523908907,1020,1019.988807522714,514,3.147941565863874,0.814
510,1.405855307141373,1020,1019.9888064242099,513,3.089402151579262,0.815
510,1.3170185577916487,1020,1019.988805356419,513,3.00833474005508,0.816
510,1.3492960090315353,1020,1019.9888043193567,513,2.9085773816642395,0.817
509,1.2775999068129635,1020,1019.9888033130381,512,2.7947225229800225,0.818
509,1.2647846293069174,1020,1019.9888023374782,511,2.6716706589505836,0.819
510,1.331829352466787,1020,1019.9888013926919,510,2.5441653322315396,0.82
510,1.4599758435457642,1020,1019.9888004786934,510,2.416366485870602,0.821
509,1.5454827439034664,1020,1019.9887995954963,510,2.29151545532042,0.822
512,1.5754296834626558,1020,1019.9887987431138,510,2.1717318834403634,0.823
509,1.6198826372200807,1020,1019.988797921559,511,2.0579624716352867,0.824
510,1.6115264380365095,1020,1019.9887971308452,511,1.9500779292265649,0.825
512,1.6395304841631455,1020,1019.9887963709847,512,1.847092323554459,0.826
515,1.590015242951998,1020,1019.9887956419892,513,1.7474620942291368,0.827
514,1.58311524135082,1020,1019.9887949438702,512,1.6494131196823747,0.828
512,1.5900785777438706,1020,1019.9887942766385,512,1.5512450325230243,0.829
512,1.5989619567010689,1020,1019.9887936403046,511,1.4515719910865752,0.83
510,1.6417530583638082,1020,1019.988793034879,511,1.3494749952529672,0.831
511,1.654209660779224,1020,1019.9887924603717,511,1.2445575973540117,0.832
510,1.69201796921075,1020,1019.9887919167917,511,1.1369107048724376,0.833
511,1.7473169428236055,1020,1019.9887914041482,510,1.0270022101730076,0.834
510,1.720273551858532,1020,1019.9887909224493,510,0.9155144939129507,0.835
510,1.6978163230243515,1020,1019.9887904717028,510,0.8031582437070973,0.836
511,1.6591994939401349,1020,1019.988790051916,509,0.690494041523658,0.837
511,1.6471315048519433,1020,1019.9887896630956,509,0.5777929939230355,0.838
510,1.6702085104962692,1020,1019.9887893052486,508,0.46496398125613647,0.839
510,1.736491095322814,1020,1019.9887889783812,508,0.3515675129804617,0.84
510,1.747817187287014,1020,1019.9887886824994,509,0.2369239901714113,0.841
512,1.7253190873228739,1020,1019.9887884176086,510,0.1203075330496745,0.842
512,1.7130926618190232,1020,1019.9887881837138,511,0.0011980612052519416,0.843
516,1.7040547438906832,1020,1019.9887879808201,510,-0.1204506989053468,0.844
519,1.6872650427749105,1020,1019.9887878089324,510,-0.24397577360048783,0.845
516,1.7124056224138264,1020,1019.9887876680554,510,-0.3678461234366386,0.846
516,1.692826909031169,1020,1019.9887875581929,510,-0.4896123211421542,0.847
515,1.6590576472509033,1020,1019.9887874793488,510,-0.6059811232258108,0.848
512,1.6590072322226566,1020,1019.9887874315267,509,-0.7130150993390771,0.849
510,1.6238384464261895,1020,1019.9887874147292,508,-0.8064410722429934,0.85
512,1.6056625347490372,1020,1019.9887874289587,508,-0.8820355564047002,0.851
511,1.5883009093622538,1020,1019.988787474217,508,-0.9360433128490359,0.852
511,1.5235539782827527,1020,1019.9887875505054,507,-0.9655792429217003,0.853
511,1.4916257763580023,1020,1019.9887876578249,507,-0.9689647743153808,0.854
509,1.4954088369873204,1020,1019.9887877961763,507,-0.945956614876774,0.855
510,1.501813270368493,1020,1019.9887879655602,507,-0.8978373610058625,0.856
508,1.521544457191859,1020,1019.9887881659769,508,-0.8273534052740064,0.857
508,1.5125073386064556,1020,1019.9887883974274,508,-0.7385044655197733,0.858
511,1.5015741946927563,1020,1019.9887886599121,509,-0.6362081819797909,0.859
508,1.5146326816086482,1020,1019.988788953431,510,-0.5258795552706159,0.86
512,1.4977965538743023,1020,1019.9887892779838,510,-0.4129759295119278,0.861
512,1.4682483506885364,1020,1019.9887896335689,510,-0.3025619049569141,0.862
513,1.493452074235507,1020,1019.9887900201851,511,-0.19894428591124264,0.863
515,1.5225447901551807,1020,1019.988790437831,510,-0.10541589940287048,0.864
513,1.5050737418354776,1020,1019.9887908865043,510,-0.024131081970595037,0.865
511,1.4978362640354035,1020,1019.9887913662018,509,0.0438826395061158,0.866
512,1.5327869471781082,1020,1019.9887918769199,510,0.09858987150622314,0.867
513,1.563810539803717,1020,1019.9887924186545,509,0.14071715321339226,0.868
510,1.5861436091137708,1020,1019.988792991401,509,0.17146384427930647,0.869
509,1.5173958393997862,1020,1019.988793595155,509,0.19219497005377525,0.87
511,1.388647400122593,1020,1019.9887942299114,508,0.20415712989191856,0.871
511,1.3049490486219442,1020,1019.9887948956647,508,0.20825491290330023,0.872
512,1.2306868569857514,1020,1019.9887955924086,509,0.20491719422351753,0.873
511,1.164481997749165,1020,1019.9887963201367,509,0.19407005383775133,0.874
511,1.1955295225020754,1020,1019.9887970788421,509,0.17521725588768702,0.875
511,1.1846555021690157,1020,1019.9887978685182,510,0.14761334347343164,0.876
512,1.1935180216008958,1020,1019.988798689158,510,0.11050158949493606,0.877
510,1.184286146813957,1020,1019.9887995407543,510,0.06338101977700092,0.878
511,1.1931852211854739,1020,1019.9888004232997,510,0.0062640740348304975,0.879
512,1.2267224116418782,1020,1019.9888013367871,510,-0.060110952234008204,0.88
514,1.1929373911541141,1020,1019.9888022812087,510,-0.13414184401194934,0.881
511,1.1899914492027601,1020,1019.9888032565572,510,-0.2133187204929029,0.882
511,1.1336654644197766,1020,1019.9888042628253,510,-0.2942838936144961,0.883
513,1.0941425020217872,1020,1019.9888053000053,509,-0.3729929428563434,0.884
512,1.081364584552905,1020,1019.9888063680891,508,-0.44496241592804703,0.885
512,1.1475330854749795,1020,1019.9888074670683,509,-0.5055783713538827,0.886
510,1.2851109071804347,1020,1019.988808596935,508,-0.5504323072029973,0.887
509,1.3414195494019392,1020,1019.9888097576803,508,-0.5756486573736694,0.888
511,1.356874783315089,1020,1019.9888109492953,508,-0.5781706315815154,0.889
513,1.290884172699305,1020,1019.9888121717698,508,-0.5559772377702582,0.89
515,1.3404184388726323,1020,1019.988813425094,508,-0.508212875042593,0.891
513,1.4423914947447911,1020,1019.9888147092578,508,-0.43522138924037673,0.892
513,1.5540798155651985,1020,1019.9888160242502,509,-0.33848820605748026,0.893
512,1.606102320953764,1020,1019.9888173700596,510,-0.2205060899497691,0.894
511,1.5808114982596142,1020,1019.9888187466735,511,-0.08459052075910155,0.895
511,1.5502575943589985,1020,1019.9888201540788,510,0.06532329218742626,0.896
512,1.5668630563742403,1020,1019.9888215922618,510,0.2248710456154906,0.897
511,1.609484012602597,1020,1019.988823061209,510,0.3894157098331676,0.898
510,1.633413302265347,1020,1019.9888245609067,510,0.5541603975202102,0.899
510,1.6381783487228962,1020,1019.9888260913411,510,0.7142203449630254,0.9
512,1.6709660528183796,1020,1019.9888276524983,510,0.8646649967629885,0.901
511,1.739785690288077,1020,1019.9888292443633,510,1.000545977984724,0.902
510,1.8222684878360231,1020,1019.9888308669205,510,1.1169286154784408,0.903
509,1.8880871887774306,1020,1019.988832520154,510,1.2089440436426582,0.904
510,1.918670433654338,1020,1019.9888342040475,510,1.2718760061751806,0.905
510,1.9291766771967915,1020,1019.9888359185846,510,1.301291480725054,0.906
510,1.9098683183079,1020,1019.9888376637485,510,1.2932175301394928,0.907
510,1.9192808329850333,1020,1019.9888394395215,510,1.2443587270899148,0.908
511,1.9799917885349716,1020,1019.9888412458853,511,1.1523406489467116,0.909
518,2.0056625612585672,1020,1019.9888430828208,511,1.0159562581283723,0.91
518,2.031592714029502,1020,1019.988844950309,511,0.8353852484092846,0.911
515,2.0220890112812837,1020,1019.9888468483304,511,0.6123539311903211,0.912
513,2.0230253059672414,1020,1019.9888487768648,511,0.3502064242832786,0.913
511,2.0142061739617243,1020,1019.9888507358918,510,0.053866536195438665,0.914
507,2.011901112776814,1020,1019.988852725391,510,-0.2703176528240664,0.915
506,1.9824554995172856,1020,1019.9888547453414,509,-0.6148397929724356,0.916
505,1.9676639812246872,1020,1019.9888567957217,508,-0.971390348477547,0.917
507,1.9897073480123095,1020,1019.9888588765101,507,-1.331266535268698,0.918
511,2.0390899063234085,1020,1019.9888609876851,506,-1.6857943558468338,0.919
512,2.0780101395905133,1020,1019.988863129225,506,-2.0267178031369903,0.92
510,2.0855254253339814,1020,1019.9888653011079,506,-2.346515971726596,0.921
509,2.1076875443937855,1020,1019.9888675033111,506,-2.6386218237641703,0.922
510,2.1208494571936285,1020,1019.9888697358114,506,-2.8975338297063264,0.923
511,2.121030807506871,1020,1019.9888719985851,506,-3.1188296822594697,0.924
514,2.1301795532891754,1020,1019.9888742916081,507,-3.2991066161586273,0.925
515,2.1251444783373716,1020,1019.9888766148564,507,-3.435883810288745,0.926
516,2.1588711725667045,1020,1019.9888789683054,507,-3.527507675319116,0.927
516,2.2261822057247462,1020,1019.98888135193,507,-3.573099356205643,0.928
514,2.2118501567084445,1020,1019.9888837657048,508,-3.5725752364330705,0.929
513,2.2273262194504087,1020,1019.988886209604,507,-3.526756781868433,0.93
513,2.2533844703266217,1020,1019.9888886836019,506,-3.437567399883203,0.931
511,2.244351780145353,1020,1019.9888911876727,505,-3.308293080915818,0.932
508,2.23660643098122,1020,1019.9888937217905,505,-3.1438640564606777,0.933
509,2.217407434278884,1020,1019.9888962859294,505,-2.9511018469909054,0.934
510,2.2630772547809506,1020,1019.988898880063,505,-2.7388738782787936,0.935
512,2.160423797837799,1020,1019.9889015041643,506,-2.5181063789520257,0.936
510,2.0265613268027445,1020,1019.9889041582063,506,-2.301622349812558,0.937
510,1.9639216470392549,1020,1019.9889068421616,507,-2.103790917183694,0.938
512,1.9475923452927886,1020,1019.9889095560023,507,-1.939993797927816,0.939
512,1.992223258084562,1020,1019.9889122997005,507,-1.8259314324406168,0.94
514,1.977242890422925,1020,1019.9889150732282,507,-1.7768045148456808,0.941
515,1.8849223228272267,1020,1019.9889178765574,507,-1.806416612219838,0.942
515,1.764337196512481,1020,1019.9889207096593,508,-1.9262516749914815,0.943
515,1.715214713959994,1020,1019.9889235725049,508,-2.1445873511835907,0.944
510,1.729298166477832,1020,1019.988926465065,508,-2.4657101888799042,0.945
511,1.7158026825786825,1020,1019.9889293873097,508,-2.8892996336994052,0.946
510,1.709809331337735,1020,1019.9889323392089,508,-3.410042126605247,0.947
512,1.702621761374892,1020,1019.9889353207326,507,-4.0175240750510595,0.948
509,1.6945979223062813,1020,1019.9889383318504,506,-4.696433718353988,0.949
511,1.7049589095802493,1020,1019.9889413725308,505,-5.427078399482819,0.95
509,1.6996065101125655,1020,1019.9889444427425,504,-6.186197943137436,0.951
508,1.6453883428244234,1020,1019.9889475424537,503,-6.948029813477583,0.952
512,1.5599000046308376,1020,1019.9889506716326,501,-7.6855599705585975,0.953
514,1.4877199463317863,1020,1019.9889538302467,500,-8.371876323178677,0.954
514,1.4608681326629847,1020,1019.9889570182639,499,-8.981530742386067,0.955
510,1.4512638495050918,1020,1019.988960235651,498,-9.49181249881815,0.956
511,1.4482904819493718,1020,1019.9889634823738,497,-9.883841921225002,0.957
511,1.4352883083723884,1020,1019.9889667583983,497,-10.143407874658754,0.958
514,1.37558922045067,1020,1019.9889700636899,497,-10.261495234469008,0.959
512,1.3403604681017305,1020,1019.9889733982135,499,-10.234477252301422,0.96
511,1.3546095463102854,1020,1019.9889767619337,499,-10.063979589379315,0.961
511,1.4154170745916677,1020,1019.9889801548146,500,-9.756452981972464,0.962
510,1.412384128121143,1020,1019.9889835768194,501,-9.322514829777658,0.963
508,1.3894728177658002,1020,1019.9889870279102,502,-8.77613349426241,0.964
508,1.409675893269274,1020,1019.9889905080489,502,-8.133732709459512,0.965
510,1.4109678298517196,1020,1019.9889940171973,504,-7.413288688518646,0.966
511,1.3682923361902515,1020,1019.9889975553168,504,-6.633481016719283,0.967
509,1.3470925133873985,1020,1019.9890011223682,504,-5.812942095819553,0.968
510,1.281890502020122,1020,1019.9890047183129,504,-4.969630733801758,0.969
511,1.2397103329092745,1020,1019.9890083431118,505,-4.120336261388751,0.97
512,1.2309711470614466,1020,1019.9890119967248,506,-3.2803041251306437,0.971
513,1.2158480633118427,1020,1019.989015679112,506,-2.4629651405728388,0.972
512,1.2022044139490693,1020,1019.9890193902328,507,-1.6797484312762527,0.973
512,1.2098322159480968,1020,1019.9890231300463,508,-0.9399605450456177,0.974
513,1.1738003148689629,1020,1019.9890268985117,509,-0.2507186748597746,0.975
512,1.1657803964703877,1020,1019.9890306955871,510,0.3830668480380374,0.976
511,1.1379575436699447,1020,1019.9890345212306,511,0.9586583939454755,0.977
512,1.0825242357355502,1020,1019.9890383753999,511,1.4753979037438318,0.978
512,1.1127209994113958,1020,1019.9890422580519,512,1.9345464127545364,0.979
512,1.0884902237458147,1020,1019.9890461691424,512,2.3390506092022076,0.98
510,1.0604160266829243,1020,1019.9890501086273,513,2.693236219746614,0.981
511,1.0794707332210596,1020,1019.9890540764626,513,3.0024348560763094,0.982
512,1.0673480642881694,1020,1019.989058072604,513,3.272558734637951,0.983
510,1.0751467823323682,1020,1019.9890620970071,513,3.5096463269759877,0.984
509,1.0658801352733123,1020,1019.9890661496269,512,3.719410849150915,0.985
508,1.0413274776559212,1020,1019.9890702304177,512,3.9068307047956634,0.986
510,1.0728565270012782,1020,1019.9890743393343,512,4.0758238731479,0.987
512,1.149645217589755,1020,1019.9890784763301,512,4.229044390814585,0.988
513,1.2232562342042095,1020,1019.9890826413583,513,4.367827785486441,0.989
511,1.2570891494258178,1020,1019.9890868343717,513,4.492295173217375,0.99
512,1.2717177335999,1020,1019.9890910553225,514,4.6016060002632155,0.991
513,1.3461364587301476,1020,1019.9890953041626,514,4.694330696651577,0.992
512,1.4203266871457523,1020,1019.989099580844,515,4.768899622865661,0.993
512,1.3958384105808233,1020,1019.9891038853192,515,4.824075243314743,0.994
512,1.4452340567709316,1020,1019.9891082175403,515,4.859391096622232,0.995
511,1.568458513898992,1020,1019.9891125774597,516,4.875503831912399,0.996
511,1.6786240495993827,1020,1019.989116965029,516,4.874412772837373,0.997
512,1.8209197558040018,1020,1019.9891213802001,515,4.859514448816044,0.998
511,1.9739107604299566,1020,1019.9891258229248,516,4.835476735787508,0.999
512,2.03608940223708,1020,1019.9891302931545,515,4.807937608649446,1.0
512,1.9959807864415327,1020,1019.9891347908405,514,4.783054968343075,1.001
511,2.0794232988653003,1020,1019.9891393159336,513,4.766954104400807,1.002
509,2.1398242095190225,1020,1019.9891438683838,513,4.765135332987018,1.003
510,2.145374718840822,1020,1019.9891484481403,512,4.781912875221898,1.004
510,2.143101310159706,1020,1019.9891530551516,512,4.819954440039822,1.005
510,2.152186059828706,1020,1019.9891576893659,513,4.879978902683741,1.006
511,2.174965516593482,1020,1019.9891623507309,513,4.960648852943989,1.007
511,2.221543914699457,1020,1019.9891670391938,514,5.058669073817779,1.008
509,2.2174493677847256,1020,1019.989171754701,515,5.1690756409751595,1.009
512,2.2195335341293982,1020,1019.9891764971989,515,5.285677681997341,1.01
513,2.245244654726331,1020,1019.9891812666332,516,5.401598042323987,1.011
516,2.2834390092817616,1020,1019.9891860629485,516,5.509851674430871,1.012
516,2.3504814109634324,1020,1019.989190886089,516,5.60390143404784,1.013
516,2.3909771238297752,1020,1019.9891957359981,516,5.678138812656856,1.014
515,2.3990580539704256,1020,1019.9892006126191,516,5.728249870727462,1.015
516,2.416927962078958,1020,1019.9892055158952,516,5.751441887817887,1.016
515,2.4897422050142106,1020,1019.9892104457689,515,5.746521950630386,1.017
512,2.494092423741519,1020,1019.9892154021835,516,5.713833457487005,1.018
508,2.528034644486691,1020,1019.9892203850821,515,5.655069345723115,1.019
505,2.5207769231386776,1020,1019.9892253944075,515,5.572991111224652,1.02
505,2.5158462960609627,1020,1019.9892304301014,514,5.471090312876359,1.021
502,2.55701225426515,1020,1019.9892354921052,513,5.353234120298851,1.022
503,2.581719314542691,1020,1019.9892405803602,514,5.223337392931003,1.023
507,2.6252058073533693,1020,1019.9892456948072,513,5.0850989959803465,1.024
512,2.6912238070843326,1020,1019.9892508353872,513,4.941829065099697,1.025
516,2.6973199070632057,1020,1019.9892560020411,514,4.7963783814967105,1.026
515,2.708468827369144,1020,1019.9892611947097,514,4.651163595478245,1.027
510,2.761419392405937,1020,1019.9892664133339,515,4.508265439450695,1.028
511,2.8237577255345783,1020,1019.9892716578537,515,4.369564299302047,1.029
510,2.856353425564352,1020,1019.989276928209,515,4.236871614337755,1.03
514,2.8380702993519202,1020,1019.98928222434,515,4.112018229314569,1.031
514,2.8564547647689524,1020,1019.9892875461859,514,3.9968714517282375,1.032
511,2.8739400380772877,1020,1019.9892928936855,514,3.89326870105102,1.033
513,2.8838424582675666,1020,1019.9892982667769,513,3.8028738014303074,1.034
515,2.8886510077750676,1020,1019.9893036653974,512,3.7269785938638855,1.035
517,2.921226336839925,1020,1019.9893090894842,512,3.6662845664711674,1.036
516,2.933445337188227,1020,1019.9893145389741,512,3.6207043256423868,1.037
515,2.868057524046947,1020,1019.9893200138034,512,3.5892199115802863,1.038
513,2.817967041779056,1020,1019.9893255139085,512,3.56982517976915,1.039
511,2.73290741845921,1020,1019.9893310392252,513,3.5595654996475385,1.04
507,2.686588873081949,1020,1019.9893365896891,513,3.5546730186394964,1.041
510,2.599265766872245,1020,1019.9893421652349,513,3.5507823541449097,1.042
509,2.5310578974507503,1020,1019.9893477657969,514,3.543201891832278,1.043
512,2.5187820665203966,1020,1019.9893533913086,514,3.5272111095324843,1.044
511,2.458300502306928,1020,1019.9893590417026,514,3.498354821150169,1.045
509,2.3774141772214143,1020,1019.9893647169114,513,3.4527108719218895,1.046
513,2.2748465176385317,1020,1019.9893704168666,513,3.387117873338287,1.047
514,2.1411503434331842,1020,1019.9893761414995,512,3.299361640953535,1.048
515,2.0327195250245396,1020,1019.9893818907411,512,3.188329450148946,1.049
512,1.9847304799741021,1020,1019.9893876645223,512,3.054147064436494,1.05
510,2.0079171252301036,1020,1019.9893934627734,512,2.8983137362108917,1.051
508,1.9332481968387791,1020,1019.9893992854248,511,2.7238460488793295,1.052
506,1.9065201449896771,1020,1019.9894051324071,511,2.5354345021985,1.053
508,1.9491883224600897,1020,1019.9894110036502,511,2.339608389020335,1.054
511,2.005803315860163,1020,1019.989416899083,511,2.1448947160134435,1.055
514,2.025518978382551,1020,1019.9894228186344,511,1.9619455894645434,1.056
512,1.9914899115111284,1020,1019.9894287622323,511,1.8035967525252274,1.057
510,1.9692074991592092,1020,1019.9894347298044,512,1.6848096779840913,1.058
509,1.9890081536801816,1020,1019.9894407212781,513,1.622442449764504,1.059
513,1.9960678026763088,1020,1019.9894467365806,514,1.6347924966841452,1.06
514,1.9529227616936187,1020,1019.9894527756386,515,1.7408600303452917,1.061
512,1.8831795430969462,1020,1019.989458838378,514,1.9592981165035865,1.062
514,1.796332166398424,1020,1019.9894649247243,514,2.3070451084168893,1.063
511,1.7481584724749717,1020,1019.9894710346033,513,2.7976751476385417,1.064
510,1.742173132508267,1020,1019.9894771679404,513,3.439546081856185,1.065
511,1.770362492042582,1020,1019.9894833246611,513,4.233863494742823,1.066
512,1.7341452701169668,1020,1019.9894895046908,513,5.172808353281754,1.067
511,1.7069633701419484,1020,1019.9894957079549,514,6.237891045914056,1.068
512,1.6682647374512802,1020,1019.9895019343788,515,7.398696042730731,1.069
509,1.777792524279258,1020,1019.9895081838871,515,8.612170465457185,1.07
510,1.8630752116133131,1020,1019.9895144564042,516,9.822588663146115,1.071
509,1.813222251077383,1020,1019.9895207518542,517,10.962295198271844,1.072
508,1.8316398340305908,1020,1019.9895270701608,518,11.953291083405283,1.073
510,1.7951171902227154,1020,1019.9895334112474,518,12.709683053367256,1.074
510,1.755440450297126,1020,1019.9895397750373,519,13.140964482245131,1.075
513,1.8538551549895972,1020,1019.9895461614536,520,13.156041307317851,1.076
513,1.8584533036537292,1020,1019.9895525704195,520,12.667859156252739,1.077
515,1.8030898856290734,1020,1019.9895590018581,520,11.598431845174408,1.078
515,1.708520076243204,1020,1019.9895654556916,520,9.884020989110518,1.079
514,1.6739208216173767,1020,1019.9895719318428,519,7.480176437107447,1.08
512,1.6780098612344605,1020,1019.9895784302333,519,4.366321935605573,1.081
513,1.649277040044566,1020,1019.9895849507851,516,0.5495642854348954,1.082
513,1.6348449508774645,1020,1019.989591493419,512,-3.9325779627812283,1.083
510,1.6500443183495455,1020,1019.9895980580549,507,-9.010785383165423,1.084
510,1.6861797559510652,1020,1019.9896046446123,502,-14.5840765300906,1.085
510,1.7064948982727082,1020,1019.9896112530108,495,-20.52157267252679,1.086
511,1.6722730903078333,1020,1019.989617883169,487,-26.665884063656016,1.087
512,1.6681660628410657,1020,1019.9896245350054,479,-32.83800722355968,1.088
513,1.6764868359251095,1020,1019.9896312084387,472,-38.84352067098142,1.089
509,1.690582070159586,1020,1019.989637903387,464,-44.47977754313052,1.09
509,1.7125831724796297,1020,1019.989644619768,458,-49.543725250436914,1.091
512,1.7124566909425847,1020,1019.9896513574989,452,-53.83993899426513,1.092
511,1.7774473412096614,1020,1019.989658116497,446,-57.188438989723224,1.093
517,1.8174672711523623,1020,1019.9896648966795,443,-59.431870898706734,1.094
516,1.867318121161688,1020,1019.9896716979637,441,-60.44166573519388,1.095
511,1.8432321660072357,1020,1019.9896785202671,442,-60.122859463905954,1.096
509,1.8324679313125876,1020,1019.9896853635072,444,-58.41734134771289,1.097
510,1.8192519616725598,1020,1019.989692227601,449,-55.3054073876337,1.098
510,1.772614053029152,1020,1019.9896991124655,455,-50.80561128466402,1.099
505,1.7566339958757513,1020,1019.9897060180168,463,-44.9730196151278,1.1
510,1.7434832185627385,1020,1019.9897129441714,473,-37.89608035669312,1.101
510,1.7689284785311115,1020,1019.9897198908451,485,-29.69239566863576,1.102
511,1.7345925773106314,1020,1019.9897268579533,496,-20.50374292589053,1.103
509,1.6983565659585191,1020,1019.989733845411,505,-10.49070530163245,1.104
511,1.6565698134579363,1020,1019.9897408531332,515,0.1727490918668853,1.105
512,1.654215406959043,1020,1019.9897478810348,525,11.304458268490606,1.106
511,1.6425552523513638,1020,1019.9897549290303,535,22.718826623016874,1.107
513,2.1244885746930273,1020,1019.9897619970342,545,34.23103948587871,1.108
515,3.0364310588154066,1020,1019.989769084961,555,45.660695906217214,1.109
514,3.566834154744166,1020,1019.9897761927253,564,56.834887229261824,1.11
510,3.672654018500413,1020,1019.9897833202416,574,67.5907930838064,1.111
512,4.8617986739142625,1020,1019.9897904674243,584,77.77788823598651,1.112
514,6.210710154198227,1020,1019.9897976341875,594,87.25985281292037,1.113
512,6.47150478975637,1020,1019.9898048204453,604,95.91625752934053,1.114
514,6.550369532122382,1020,1019.9898120261108,613,103.64406175310855,1.115
511,6.57657878743587,1020,1019.9898192510963,620,110.35892511515483,1.116
508,6.853386774482656,1020,1019.9898264953139,626,115.9963020198061,1.117
509,7.1132566302979425,1020,1019.9898337586754,630,120.51226843012941,1.118
509,7.375129271600829,1020,1019.9898410410932,633,123.88402222756962,1.119
512,7.667621606549436,1020,1019.9898483424789,636,126.10999871411245,1.12
513,8.06799661698618,1020,1019.9898556627444,638,127.2095467301005,1.121
513,9.238357152475638,1020,1019.9898630018014,639,127.22211584645638,1.122
513,9.509195250517177,1020,1019.9898703595621,639,126.20591251035252,1.123
511,9.631411930034027,1020,1019.9898777359393,637,124.23599705890781,1.124
511,9.622364631848821,1020,1019.9898851308457,633,121.40181796923522,1.125
510,9.569774742288748,1020,1019.9898925441938,630,117.80421505552756,1.126
511,9.548907934086259,1020,1019.989899975897,624,113.55196588883807,1.127
512,9.578952664901854,1020,1019.9899074258677,619,108.7579934707405,1.128
512,9.774942572412654,1020,1019.9899148940189,614,103.53539255794615,1.129
512,9.841600671277456,1020,1019.989922380263,606,97.99346345257824,1.13
510,9.92713658550236,1020,1019.9899298845129,599,92.23396373700079,1.131
489,10.190828535452946,1020,1019.9899374066816,591,86.3477986603407,1.132
463,10.312267586908632,1020,1019.9899449466819,584,80.41236619002322,1.133
486,10.531449679526915,1020,1019.989952504426,577,74.48974814601608,1.134
504,10.600916997909218,1020,1019.9899600798257,572,68.62589093277911,1.135
574,10.648113619308674,1020,1019.9899676727927,566,62.85084903816825,1.136
580,10.93604439964307,1020,1019.9899752832388,563,57.18007711578833,1.137
525,11.10789564332442,1020,1019.9899829110758,561,51.61666100846244,1.138
508,11.196749517420672,1020,1019.9899905562155,559,46.15428598825327,1.139
506,11.610421430335071,1020,1019.9899982185701,556,40.78066553040022,1.14
531,11.926601639830452,1020,1019.9900058980519,551,35.48111024454727,1.141
522,12.95374124847433,1020,1019.990013594573,546,30.241913618911333,1.142
529,13.46738249795796,1020,1019.9900213080458,540,25.0532688117219,1.143
528,13.717536278695336,1020,1019.9900290383824,533,19.91149911614006,1.144
491,13.678005079100721,1020,1019.9900367854951,527,14.820469489446326,1.145
449,13.744200127289863,1020,1019.9900445492962,521,9.79213358992994,1.146
499,13.816613381932207,1020,1019.9900523296968,515,4.846249228754486,1.147
515,13.881456225631561,1020,1019.9900601266085,509,0.00935862654786498,1.148
515,14.002693492510664,1020,1019.9900679399424,504,-4.686823779863864,1.149
512,14.180205037741443,1020,1019.9900757696095,499,-9.20744370059008,1.15
512,14.318578643292476,1020,1019.9900836155206,495,-13.516773232153655,1.151
508,14.477142948490506,1020,1019.9900914775861,489,-17.580523936069508,1.152
501,14.652792468485098,1020,1019.9900993557161,485,-21.36802942187346,1.153
506,14.635757986306412,1020,1019.99010724982,481,-24.854138613922707,1.154
515,14.665606633471919,1020,1019.9901151598077,479,-28.020688661772304,1.155
526,14.933091830818888,1020,1019.9901230855888,476,-30.857463972289747,1.156
516,15.350724614459043,1020,1019.9901310270728,474,-33.362592719222576,1.157
499,14.954956207667,1020,1019.9901389841688,472,-35.542379424759474,1.158
502,14.756144313584043,1020,1019.9901469567861,472,-37.410617112579494,1.159
507,15.239418580627627,1020,1019.9901549448344,471,-38.98746221066908,1.16
494,15.266276796763881,1020,1019.9901629482227,471,-40.29798735685169,1.161
503,14.1619897202197,1020,1019.9901709668601,470,-41.370548194964,1.162
502,13.02046774024473,1020,1019.9901790006551,470,-42.23510715556549,1.163
491,12.965562120648022,1020,1019.9901870495163,469,-42.92164942758936,1.164
528,13.010132236156144,1020,1019.9901951133523,468,-43.45880579168778,1.165
564,13.034102773147996,1020,1019.9902031920714,468,-43.87276720018229,1.166
539,12.723033969039493,1020,1019.990211285581,467,-44.18654101845318,1.167
527,12.522357305073983,1020,1019.9902193937891,466,-44.419562473275214,1.168
511,12.302144136007744,1020,1019.9902275166031,465,-44.58763999579163,1.169
508,12.104181009397433,1020,1019.9902356539309,463,-44.703182378251576,1.17
506,11.920999703096895,1020,1019.99024380568,463,-44.77563231063457,1.171
507,11.122103678029319,1020,1019.9902519717588,463,-44.812018735924376,1.172
504,10.847198969323856,1020,1019.9902601520747,463,-44.81754183053629,1.173
502,11.495140960895085,1020,1019.9902683465356,463,-44.79611804957477,1.174
504,12.047606042193992,1020,1019.990276555049,464,-44.75083424845865,1.175
501,12.475895957551653,1020,1019.9902847775223,465,-44.684284444531144,1.176
503,13.079853037944748,1020,1019.9902930138627,465,-44.59878624831154,1.177
512,13.289348467490361,1020,1019.9903012639774,465,-44.49649295288404,1.178
515,13.265193922893179,1020,1019.9903095277731,466,-44.379429332458166,1.179
496,13.264282619728224,1020,1019.9903178051567,467,-44.249484147613664,1.18
491,13.31901374444992,1020,1019.9903260960344,466,-44.10839137980184,1.181
506,13.35515470767438,1020,1019.9903344003122,466,-43.95772599257902,1.182
549,13.435332124544892,1020,1019.9903427178955,466,-43.79892909819732,1.183
564,13.227282981854671,1020,1019.9903510486901,466,-43.633364169627846,1.184
520,13.118565024193865,1020,1019.9903593926018,466,-43.462393972866295,1.185
506,13.056211398580814,1020,1019.9903677495366,465,-43.287459474236606,1.186
501,12.908318189442408,1020,1019.9903761193999,465,-43.11013763009165,1.187
501,13.063009383057215,1020,1019.9903845020966,466,-42.93215523109823,1.188
504,13.167026851453516,1020,1019.9903928975317,466,-42.75534180787306,1.189
507,12.908160941080315,1020,1019.9904013056106,467,-42.58151556174714,1.19
512,12.622562870843948,1020,1019.9904097262382,467,-42.41230945805185,1.191
509,11.925751894945648,1020,1019.99041815932,467,-42.248956302829406,1.192
513,11.547484599217666,1020,1019.9904266047614,468,-42.09205967623883,1.193
503,11.347358372982796,1020,1019.9904350624682,468,-41.94138192496969,1.194
494,11.355421544551065,1020,1019.9904435323464,469,-41.795681634413995,1.195
496,11.323770841459236,1020,1019.9904520143022,469,-41.65263102272201,1.196
506,11.352210377974274,1020,1019.9904605082419,469,-41.50883768863778,1.197
555,11.390334664066978,1020,1019.9904690140719,469,-41.35998465111287,1.198
536,11.363493546571513,1020,1019.9904775316985,469,-41.201088525964906,1.199
492,11.209781408169434,1020,1019.9904860610285,468,-41.026860107170606,1.2
476,11.126729099066528,1020,1019.9904946019686,469,-40.83213708144593,1.201
529,11.0170913515165,1020,1019.9905031544253,468,-40.61234733132232,1.202
516,10.928782511811995,1020,1019.9905117183056,468,-40.36395478827667,1.203
511,10.957852088750819,1020,1019.9905202935169,468,-40.084838762417014,1.204
515,11.022782598665978,1020,1019.9905288799654,468,-39.774562404323,1.205
531,10.753714044385582,1020,1019.990537477557,469,-39.43449672127765,1.206
519,10.471316510983682,1020,1019.9905460861982,470,-39.06778289596941,1.207
516,10.45549387215066,1020,1019.990554705795,471,-38.67913535640867,1.208
512,9.770120699163211,1020,1019.990563336254,471,-38.274507397052346,1.209
510,8.78176084097249,1020,1019.9905719774819,472,-37.86065641088707,1.21
503,8.658853765700737,1020,1019.9905806293858,473,-37.44465507481843,1.211
494,8.559994062708027,1020,1019.9905892918731,474,-37.03339838996292,1.212
499,8.365288882638092,1020,1019.9905979648514,474,-36.63315493082267,1.213
502,8.166472884927094,1020,1019.9906066482284,474,-36.24920373621363,1.214
516,8.01519364777463,1020,1019.9906153419118,475,-35.88558599947685,1.215
527,7.9169198600224435,1020,1019.9906240458098,474,-35.544984858041204,1.216
522,7.97973125487893,1020,1019.9906327598304,474,-35.22873002036218,1.217
515,8.028338128236085,1020,1019.9906414838819,474,-34.936909332087616,1.218
510,8.115479237114744,1020,1019.9906502178727,474,-34.668558939499285,1.219
508,8.003014174999725,1020,1019.990658961712,475,-34.42189924665072,1.22
505,7.697855009042767,1020,1019.9906677153093,475,-34.19458553190399,1.221
504,7.391641834714798,1020,1019.9906764785745,475,-33.98394788667271,1.222
505,7.450499014547199,1020,1019.9906852514176,475,-33.7872022846828,1.223
509,6.733126873621333,1020,1019.9906940337486,476,-33.6016214914375,1.224
514,6.182172257829289,1020,1019.9907028254769,476,-33.42466120394311,1.225
516,5.703097337856371,1020,1019.9907116265125,476,-33.25404344897994,1.226
515,5.164513311412524,1020,1019.9907204367659,477,-33.087805086574235,1.227
513,4.9808196193719905,1020,1019.9907292561473,477,-32.92432323731718,1.228
517,4.802100346110475,1020,1019.9907380845674,478,-32.76233106849089,1.229
513,4.719360540397243,1020,1019.9907469219364,478,-32.60093611483051,1.23
504,4.575638472307287,1020,1019.9907557681653,477,-32.43964835084185,1.231
506,4.287848518397609,1020,1019.9907646231653,476,-32.27841661623979,1.232
508,4.10718569486876,1020,1019.9907734868483,477,-32.11766215326146,1.233
508,4.073107005225086,1020,1019.990782359126,477,-31.95829138640872,1.234
509,4.077597761777419,1020,1019.9907912399107,477,-31.801670035567756,1.235
510,4.053604750103153,1020,1019.9908001291145,478,-31.64954672647127,1.236
510,3.9009858716918204,1020,1019.9908090266498,478,-31.503923114585227,1.237
510,3.576970121592029,1020,1019.9908179324287,478,-31.366875981405983,1.238
511,3.356618403384522,1020,1019.990826846364,478,-31.240343114377673,1.239
511,3.26754444282828,1020,1019.9908357683688,478,-31.125888815506688,1.24
515,3.231912186611076,1020,1019.9908446983567,479,-31.024467589208697,1.241
517,2.940910286036002,1020,1019.9908536362412,479,-30.936207082845026,1.242
518,2.7606852992714677,1020,1019.9908625819361,479,-30.860233525712964,1.243
516,2.6706190878751737,1020,1019.9908715353553,480,-30.79456325856436,1.244
511,2.67804017069342,1020,1019.9908804964138,479,-30.73608116644257,1.245
508,2.705960113775644,1020,1019.9908894650265,480,-30.68062075649934,1.246
506,2.6199630481837612,1020,1019.9908984411089,480,-30.62315189014399,1.247
508,2.506909908430931,1020,1019.9909074245764,479,-30.558071579880334,1.248
510,2.4251190452449127,1020,1019.9909164153449,479,-30.479581588636265,1.249
512,2.412983442805443,1020,1019.9909254133307,479,-30.38212509320264,1.25
515,2.353061035462875,1020,1019.9909344184501,479,-30.26084549546291,1.251
515,2.3030988985230914,1020,1019.9909434306204,479,-30.11202545874584,1.252
511,2.2429900770552744,1020,1019.9909524497592,479,-29.93346364068342,1.253
511,2.231107716628043,1020,1019.9909614757843,479,-29.72474937758132,1.254
511,2.117635182061204,1020,1019.9909705086142,478,-29.487401017796504,1.255
510,2.1071389398258615,1020,1019.990979548168,479,-29.22484200253963,1.256
510,2.0074518864620416,1020,1019.9909885943651,479,-28.942201224117845,1.257
511,2.0184251629812993,1020,1019.9909976471248,480,-28.645941412252093,1.258
509,2.0597767913594107,1020,1019.9910067063664,481,-28.34334031526743,1.259
511,2.067284893708549,1020,1019.9910157720095,483,-28.04187113775979,1.26
511,2.070128459740418,1020,1019.9910248439741,484,-27.748546704709184,1.261
511,2.074869168623744,1020,1019.9910339221805,484,-27.4693014776493,1.262
513,2.1256914975475665,1020,1019.9910430065491,484,-27.20848319154763,1.263
516,2.215282711923472,1020,1019.9910520970005,484,-26.968511046758138,1.264
514,2.3024409172755487,1020,1019.991061193455,483,-26.749733814659425,1.265
514,2.4318134624354646,1020,1019.9910702958335,484,-26.550494892337973,1.266
513,2.4880201564304913,1020,1019.9910794040574,483,-26.36738745970098,1.267
512,2.4222903471306942,1020,1019.9910885180483,483,-26.195664246793374,1.268
510,2.3616859396560286,1020,1019.9910976377281,483,-26.02975371498101,1.269
508,2.359272493768912,1020,1019.991106763019,483,-25.863827561936635,1.27
510,2.414674022387078,1020,1019.9911158938434,483,-25.692363196495076,1.271
511,2.395334387991666,1020,1019.9911250301233,483,-25.51064869230498,1.272
510,2.343693278208571,1020,1019.9911341717815,483,-25.315185732106364,1.273
511,2.323477885762531,1020,1019.9911433187407,483,-25.103957323221962,1.274
512,2.404711772245326,1020,1019.991152470924,483,-24.876541249609154,1.275
515,2.525744628574541,1020,1019.9911616282551,485,-24.63406719939529,1.276
513,2.6081012766416047,1020,1019.991170790658,486,-24.379034470055892,1.277
514,2.5913261537697823,1020,1019.9911799580567,487,-24.11502538940778,1.278
511,2.602418114244647,1020,1019.9911891303753,487,-23.84636234280647,1.279
511,2.615581318935236,1020,1019.9911983075389,487,-23.577759238762347,1.28
510,2.6193025186396275,1020,1019.9912074894722,487,-23.314010711022682,1.281
507,2.5973490378549404,1020,1019.9912166761004,487,-23.05974779793712,1.282
507,2.6204516353395366,1020,1019.9912258673493,487,-22.81927222006671,1.283
509,2.6044568152887035,1020,1019.9912350631452,487,-22.596466429394724,1.284
510,2.6136362172198924,1020,1019.9912442634144,487,-22.394765050189505,1.285
513,2.613542934958637,1020,1019.9912534680838,487,-22.217165575593793,1.286
516,2.650326528529403,1020,1019.99126267708,486,-22.066252189874607,1.287
517,2.6768078291277817,1020,1019.99127189033,487,-21.944206471670846,1.288
517,2.646740375410359,1020,1019.9912811077614,487,-21.85278295069881,1.289
518,2.591359118308255,1020,1019.9912903293024,487,-21.793236126193634,1.29
519,2.5812999759098383,1020,1019.991299554881,487,-21.766197341251356,1.291
514,2.566393088491208,1020,1019.9913087844265,488,-21.7715126435656,1.292
516,2.5563194433966783,1020,1019.9913180178686,489,-21.808064629155993,1.293
516,2.569997419453161,1020,1019.9913272551379,489,-21.873610604982428,1.294
515,2.551729926367886,1020,1019.9913364961661,489,-21.96467363317675,1.295
509,2.474028570332273,1020,1019.991345740886,488,-22.076519585045265,1.296
509,2.466339082326213,1020,1019.9913549892302,488,-22.203242274700095,1.297
509,2.4432032341367176,1020,1019.9913642411324,488,-22.337963345008294,1.298
506,2.418379547327226,1020,1019.991373496527,487,-22.473138085839956,1.299
505,2.4124777081881796,1020,1019.9913827553486,487,-22.6009453905647,1.3
503,2.4136098047332983,1020,1019.9913920175326,487,-22.713730293119156,1.301
509,2.3798527482731218,1020,1019.9914012830153,486,-22.804461042020495,1.302
510,2.3773378054786836,1020,1019.991410551734,486,-22.86715955534816,1.303
510,2.422547750894052,1020,1019.9914198236269,485,-22.897264489410848,1.304
511,2.45105566097488,1020,1019.9914290986325,486,-22.891890550685766,1.305
512,2.4307753712842084,1020,1019.9914383766903,486,-22.84995678449159,1.306
513,2.39600696576184,1020,1019.9914476577404,486,-22.772169966807486,1.307
511,2.3013694481220397,1020,1019.9914569417232,486,-22.66086476977109,1.308
508,2.2239233714836586,1020,1019.9914662285795,487,-22.51971760520866,1.309
510,2.180041775808109,1020,1019.9914755182507,488,-22.353364702932968,1.31
513,2.1971085666147587,1020,1019.9914848106785,489,-22.16696625057479,1.311
513,2.224697418906482,1020,1019.9914941058053,489,-21.96576526163818,1.312
511,2.188136596286094,1020,1019.9915034035737,489,-21.75468935792872,1.313
512,2.1796651907378104,1020,1019.9915127039264,489,-21.538034642797367,1.314
513,2.135766057627167,1020,1019.9915220068062,488,-21.31925535775285,1.315
512,2.058711242599655,1020,1019.9915313121553,489,-21.10086536471408,1.316
512,2.0167113928922875,1020,1019.9915406199163,489,-20.88444193132878,1.317
510,2.0931097422454314,1020,1019.9915499300325,489,-20.670711119439293,1.318
512,2.085893381831625,1020,1019.9915592424466,488,-20.45968710855264,1.319
511,2.0988297567619045,1020,1019.9915685571011,488,-20.25083390572631,1.32
510,2.359163207305911,1020,1019.9915778739385,489,-20.04321740028392,1.321
511,2.6506904636640964,1020,1019.9915871929004,489,-19.835620288459943,1.322
511,3.1304627265782825,1020,1019.9915965139292,489,-19.626602368518288,1.323
510,3.2466369762145306,1020,1019.9916058369665,490,-19.414501833964273,1.324
512,3.216348257767336,1020,1019.9916151619539,491,-19.197386503561127,1.325
512,3.6355426697041415,1020,1019.9916244888329,491,-18.97297540819435,1.326
513,4.562438006681571,1020,1019.9916338175456,492,-18.738559118404034,1.327
515,4.7113471713606945,1020,1019.9916431480326,492,-18.490949885157477,1.328
514,4.7203195821167645,1020,1019.9916524802345,492,-18.226489381837283,1.329
512,4.854408593805403,1020,1019.9916618140912,492,-17.941133592479034,1.33
512,4.9980239822150665,1020,1019.9916711495423,493,-17.630623331986502,1.331
511,5.123098006314945,1020,1019.9916804865268,493,-17.290737274087412,1.332
511,5.275471931416604,1020,1019.9916898249842,493,-16.91761347003398,1.333
511,5.399055038729715,1020,1019.9916991648536,493,-16.508115139257935,1.334
509,5.430195977822603,1020,1019.9917085060745,493,-16.060207032144486,1.335
510,5.483438184628913,1020,1019.991717848586,493,-15.573301278186424,1.336
510,5.51142772700325,1020,1019.9917271923262,493,-15.048528515091421,1.337
508,5.5424108311131075,1020,1019.9917365372337,494,-14.488892908890293,1.338
514,5.541275158578106,1020,1019.9917458832472,494,-13.89927896003225,1.339
516,5.517841547080995,1020,1019.9917552303052,495,-13.286293076841496,1.34
516,5.506545319323332,1020,1019.9917645783469,496,-12.657942123604341,1.341
520,5.494320275218913,1020,1019.9917739273112,498,-12.023172372779944,1.342
515,5.486301238321083,1020,1019.9917832771368,500,-11.391312872407429,1.343
508,5.480175015977328,1020,1019.9917926277628,501,-10.771483339657665,1.344
496,5.474732697274089,1020,1019.9918019791291,501,-10.172033562487025,1.345
496,5.4919744806316295,1020,1019.9918113311753,501,-9.600075758408384,1.346
486,5.5798924133145915,1020,1019.9918206838413,501,-9.061154626933,1.347
504,5.68796947902306,1020,1019.9918300370671,502,-8.559077500627623,1.348
517,5.798552415656514,1020,1019.9918393907922,502,-8.095905404712045,1.349
539,5.8376449845401766,1020,1019.9918487449556,502,-7.672088412855456,1.35
568,5.946788170722409,1020,1019.9918580994961,502,-7.286715543515983,1.351
521,6.074631518666108,1020,1019.9918674543512,502,-6.937839837486247,1.352
515,6.127838394649605,1020,1019.9918768094587,502,-6.622833571139719,1.353
519,6.057196540173197,1020,1019.9918861647564,502,-6.338727896391514,1.354
506,6.098987661573126,1020,1019.9918955201813,502,-6.0824961719265636,1.355
504,6.145187787120383,1020,1019.9919048756708,503,-5.851250643923568,1.356
503,6.256449015982423,1020,1019.9919142311621,504,-5.642336970517067,1.357
505,6.369836416652295,1020,1019.9919235865925,504,-5.453328225633173,1.358
508,6.530186926207442,1020,1019.9919329418997,505,-5.281936066686903,1.359
508,6.586381500970959,1020,1019.9919422970213,505,-5.125868357817261,1.36
508,7.035377577521066,1020,1019.9919516518946,506,-4.9826680651474105,1.361
508,7.27950848591263,1020,1019.9919610064569,505,-4.849567817266731,1.362
511,7.3992253596039115,1020,1019.9919703606454,505,-4.7233891221989515,1.363
512,7.42166422214995,1020,1019.9919797143978,506,-4.600506533188201,1.364
512,7.512763966370511,1020,1019.9919890676513,506,-4.476887445213978,1.365
511,7.521922671950081,1020,1019.9919984203427,506,-4.348209295735748,1.366
510,7.575810753272792,1020,1019.9920077724084,506,-4.210047284294422,1.367
511,7.5015535530695825,1020,1019.9920171237843,505,-4.058116154189664,1.368
510,7.502239655562047,1020,1019.9920264744062,505,-3.8885396388335325,1.369
512,7.57793285646595,1020,1019.9920358242105,505,-3.6981134659166823,1.37
505,7.302773673130719,1020,1019.9920451731334,505,-3.484525276750163,1.371
505,7.084007827948595,1020,1019.992054521111,505,-3.2464989032587495,1.372
505,6.708671447932451,1020,1019.9920638680794,506,-2.9838405604130296,1.373
507,6.706553473402318,1020,1019.9920732139751,507,-2.6973787848087922,1.374
517,6.6401619076503025,1020,1019.992082558734,508,-2.388805811524706,1.375
517,6.125637669679144,1020,1019.9920919022918,508,-2.060442150401483,1.376
515,5.0994084886140465,1020,1019.992101244585,508,-1.7149549749914148,1.377
510,4.933612185271928,1020,1019.9921105855499,508,-1.355063221593308,1.378
515,4.935107320148135,1020,1019.9921199251223,509,-0.9832599029517821,1.379
513,4.798512974314139,1020,1019.9921292632378,510,-0.6015785427680383,1.38
516,4.654526195642226,1020,1019.9921385998316,511,-0.21142769380179763,1.381
517,4.573719826757335,1020,1019.9921479348388,511,0.18648613092482397,1.382
519,4.38968426395031,1020,1019.9921572681944,511,0.5921340646248403,1.383
515,4.291551925358909,1020,1019.9921665998334,511,1.0060382894704094,1.384
484,4.227881610706452,1020,1019.992175929691,511,1.4290579750877046,1.385
497,4.3736652767669435,1020,1019.9921852577024,511,1.8621172911147064,1.386
517,4.9324700172928795,1020,1019.992194583803,511,2.305915709523685,1.387
518,5.542862156163496,1020,1019.9922039079281,511,2.760665532395544,1.388
516,5.56643847721847,1020,1019.9922132300132,511,3.2258997073360853,1.389
509,6.392365991265217,1020,1019.9922225499938,512,3.7003843897728337,1.39
502,6.944005564095587,1020,1019.9922318678052,514,4.182155805545204,1.391
515,7.119381421988567,1020,1019.992241183382,514,4.66868168892408,1.392
506,7.17319079309742,1020,1019.9922504966587,515,5.157127937410662,1.393
503,7.902826859958793,1020,1019.9922598075698,515,5.644695641290169,1.394
512,8.503046426737278,1020,1019.9922691160498,516,6.128984358937429,1.395
518,8.552646972327736,1020,1019.9922784220328,519,6.608333354084836,1.396
518,8.439729580652102,1020,1019.9922877254528,519,7.08209225456185,1.397
520,8.485590667638029,1020,1019.9922970262435,518,7.550777766240328,1.398
511,8.654352172677507,1020,1019.992306324338,518,8.016086500567235,1.399
510,8.855187304924947,1020,1019.992315619669,519,8.480754863691532,1.4
508,8.891117081699734,1020,1019.9923249121687,519,8.94827950431897,1.401
510,8.89833922168627,1020,1019.9923342017689,519,9.42253014371341,1.402
510,8.916056427542598,1020,1019.992343488401,519,9.907299171681561,1.403
513,8.938160752887452,1020,1019.9923527719959,519,10.405840279786284,1.404
511,8.929335886729287,1020,1019.9923620524839,519,10.920451696148287,1.405
509,8.915865820705573,1020,1019.9923713297956,519,11.452156934087048,1.406
512,8.8139135203313,1020,1019.9923806038612,520,12.000526180881705,1.407
511,8.701539389444687,1020,1019.9923898746113,521,12.563664459326663,1.408
512,8.535641842222589,1020,1019.9923991419757,522,13.13836995834259,1.409
502,8.468815172059243,1020,1019.9924084058846,524,13.720440695601955,1.41
479,7.962824850557118,1020,1019.9924176662678,526,14.305084443793556,1.411
479,7.694330438600367,1020,1019.9924269230553,527,14.887370428464092,1.412
509,7.568061041326294,1020,1019.9924361761766,527,15.462656027486217,1.413
555,7.469764787481851,1020,1019.9924454255608,526,16.02692990350012,1.414
539,7.336436212467486,1020,1019.9924546711366,526,16.577032600850448,1.415
504,7.321668821712214,1020,1019.9924639128324,527,17.110739690282674,1.416
507,7.2360390756739825,1020,1019.9924731505769,528,17.626712907257065,1.417
550,7.24717349230687,1020,1019.9924823842982,529,18.12433738627898,1.418
541,7.216245563205815,1020,1019.9924916139246,529,18.603470099049666,1.419
516,7.098142147793242,1020,1019.9925008393845,528,19.06413083704578,1.42
511,7.105212690638129,1020,1019.9925100606067,528,19.506175100842835,1.421
504,6.991665166109135,1020,1019.9925192775202,527,19.928995826588682,1.422
497,6.910831527992478,1020,1019.9925284900539,528,20.33130265511323,1.423
498,6.7578910131068755,1020,1019.9925376981375,530,20.711019011098397,1.424
504,6.757146436415714,1020,1019.9925469017005,530,21.06531847773456,1.425
503,6.747657776609671,1020,1019.9925561006723,531,21.39079763626755,1.426
507,6.6884895240984115,1020,1019.9925652949821,532,21.68375966473197,1.427
509,6.655590763958149,1020,1019.9925744845589,533,21.94056656013962,1.428
508,6.7985639765457035,1020,1019.9925836693312,533,22.158009527069133,1.429
508,6.856325812459107,1020,1019.9925928492282,533,22.333646940779097,1.43
511,6.8705614197769735,1020,1019.992602024179,533,22.466066777224025,1.431
511,6.82760316652669,1020,1019.9926111941129,533,22.555043475157515,1.432
512,6.858764233036306,1020,1019.99262035896,533,22.601574604365965,1.433
510,6.870790100595566,1020,1019.9926295186499,533,22.607797752414733,1.434
511,6.916912414269996,1020,1019.9926386731124,532,22.576801548566,1.435
512,6.713552804374451,1020,1019.9926478222771,532,22.512356389110064,1.436
509,6.098882743066595,1020,1019.9926569660736,531,22.418599472203365,1.437
510,5.475412223207828,1020,1019.9926661044317,531,22.29971367633311,1.438
510,5.515740896164421,1020,1019.9926752372814,531,22.159639150289554,1.439
509,4.714837900156161,1020,1019.9926843645524,531,22.001849904283088,1.44
513,4.271740056431773,1020,1019.992693486174,531,21.8292165019653,1.441
515,4.193179485211302,1020,1019.9927026020753,531,21.643962594027816,1.442
512,4.280875134250724,1020,1019.9927117121849,531,21.447709964318495,1.443
515,3.647819328165176,1020,1019.9927208164311,531,21.241595565168527,1.444
513,3.6334125706121863,1020,1019.9927299147419,532,21.026435470052178,1.445
512,4.399752454535072,1020,1019.9927390070454,531,20.802905429943774,1.446
507,5.14533877902917,1020,1019.9927480932699,531,20.57170675101506,1.447
512,5.691826036520914,1020,1019.9927571733435,531,20.33369014292021,1.448
511,5.499913601902883,1020,1019.9927662471948,531,20.08991831166245,1.449
510,6.8410013490759605,1020,1019.9927753147524,529,19.841658705575085,1.45
512,7.978577719881911,1020,1019.9927843759453,530,19.5903094318499,1.451
511,8.221435098179262,1020,1019.9927934307032,529,19.33727244778428,1.452
521,8.28793703493017,1020,1019.9928024789549,528,19.083796893401225,1.453
515,8.373365950483418,1020,1019.9928115206296,528,18.83082065072903,1.454
512,8.4850424723746,1020,1019.9928205556569,527,18.578839552070544,1.455
510,8.617297145914831,1020,1019.9928295839661,527,18.327830724027606,1.456
511,8.679277903529147,1020,1019.9928386054864,527,18.07724890634875,1.457
509,8.769024487344698,1020,1019.9928476201469,527,17.826102740060932,1.458
510,8.9055760116979,1020,1019.9928566278761,527,17.57310374351179,1.459
512,9.054290214348283,1020,1019.9928656286031,528,17.316866472404744,1.46
514,9.099522601006932,1020,1019.9928746222574,528,17.056126799230494,1.461
515,9.111301122438755,1020,1019.9928836087686,529,16.78993889489402,1.462
516,9.182693127721468,1020,1019.9928925880652,528,16.517812822437325,1.463
514,9.236206791294821,1020,1019.9929015600767,526,16.239765221899933,1.464
519,9.266019340875072,1020,1019.9929105247331,525,15.95627414303102,1.465
519,9.402812424389909,1020,1019.9929194819645,525,15.668150412583445,1.466
519,9.395615520471203,1020,1019.9929284317006,525,15.376354687526817,1.467
509,9.660911350102873,1020,1019.9929373738712,524,15.081796951542643,1.468
481,9.773073721418802,1020,1019.9929463084056,524,14.785154509584371,1.469
473,9.739893698607524,1020,1019.9929552352335,523,14.486739229208828,1.47
473,9.777144577202844,1020,1019.9929641542847,523,14.186437242191605,1.471
480,9.867623597588596,1020,1019.9929730654892,523,13.883734705850696,1.472
515,9.87827683221074,1020,1019.992981968777,523,13.577831333658375,1.473
595,9.928966388298285,1020,1019.9929908640781,523,13.267830224557526,1.474
575,9.965175254154612,1020,1019.992999751322,523,12.952980158165653,1.475
534,9.942821651620017,1020,1019.9930086304387,523,12.632937146670354,1.476
519,9.963821077153758,1020,1019.993017501359,523,12.308006982008491,1.477
508,9.987133084955932,1020,1019.9930263640142,523,11.979330289964851,1.478
502,9.820107597842812,1020,1019.9930352183353,523,11.648976328220416,1.479
504,9.753509019440987,1020,1019.9930440642531,522,11.319921423991744,1.48
508,9.735701320011968,1020,1019.9930529016981,521,10.995902071513097,1.481
507,9.737389285614482,1020,1019.9930617306011,521,10.681149673347,1.482
504,9.737223589192528,1020,1019.9930705508934,520,10.380030747850466,1.483
504,9.720147064673464,1020,1019.9930793625069,519,10.096630073153996,1.484
509,9.661547821405891,1020,1019.9930881653729,519,9.834322946176446,1.485
510,9.665323476547446,1020,1019.9930969594232,518,9.595385898312298,1.486
506,9.674123739465664,1020,1019.9931057445895,518,9.38069254878052,1.487
508,9.694519776011207,1020,1019.9931145208027,518,9.189532963266709,1.488
509,9.690477850292783,1020,1019.9931232879937,518,9.019581959451635,1.489
521,9.68536233111156,1020,1019.9931320460935,517,8.867026004308075,1.49
508,9.552382839015527,1020,1019.9931407950323,518,8.726841488515618,1.491
495,9.460038285071601,1020,1019.9931495347407,519,8.593200421926703,1.492
503,9.353384059117982,1020,1019.9931582651495,519,8.459963949656531,1.493
513,9.3114943529771,1020,1019.9931669861901,519,8.321211797153149,1.494
515,8.773345229243807,1020,1019.9931756977933,519,8.171750057060716,1.495
516,7.968065138999196,1020,1019.9931843998904,519,8.007542213373762,1.496
515,7.242372819980289,1020,1019.9931930924129,519,7.826017645548817,1.497
514,6.55523770097663,1020,1019.9932017752919,519,7.626225678680739,1.498
513,6.555186083069127,1020,1019.9932104484585,518,7.408820021784333,1.499
511,4.971345117891641,1020,1019.9932191118444,517,7.1758773233430695,1.5
512,3.6858213694211868,1020,1019.9932277653809,517,6.93057305032278,1.501
512,3.311572152326396,1020,1019.9932364089989,516,6.676755222655785,1.502
511,3.153861139779227,1020,1019.9932450426288,515,6.418468916080183,1.503
510,3.0446430500428616,1020,1019.9932536662011,514,6.15949038177624,1.504
511,2.8801021014454697,1020,1019.9932622796462,514,5.902928498502428,1.505
510,2.709686963781092,1020,1019.9932708828944,514,5.650942383261491,1.506
509,2.7396783863740137,1020,1019.9932794758763,514,5.404607407278875,1.507
512,2.7454596368914403,1020,1019.9932880585222,515,5.1639398863212165,1.508
512,2.717967061279586,1020,1019.9932966307626,515,4.92806755402278,1.509
510,2.5867994589734185,1020,1019.9933051925275,515,4.695513069704024,1.51
513,2.8126033855102466,1020,1019.9933137437467,515,4.464544593423948,1.511
515,2.909875713227572,1020,1019.9933222843504,515,4.233542179483061,1.512
515,2.8313560121639783,1020,1019.9933308142683,515,4.001330602668839,1.513
512,2.7670679680588157,1020,1019.9933393334306,515,3.7674365403594163,1.514
512,2.750005361581335,1020,1019.9933478417668,514,3.5322394865432245,1.515
510,2.5727727376708835,1020,1019.9933563392058,514,3.2970004733827465,1.516
510,2.570860854610743,1020,1019.9933648256772,513,3.063769249747086,1.517
508,2.2429859315067846,1020,1019.9933733011096,513,2.835186873301381,1.518
515,2.159588347069698,1020,1019.9933817654307,511,2.614214509369132,1.519
513,2.1302920078621104,1020,1019.9933902185678,511,2.403828858519899,1.52
513,2.058835545234507,1020,1019.9933986604481,511,2.2067284337385873,1.521
511,1.9651538690557309,1020,1019.9934070909987,511,2.0250914900851873,1.522
507,1.8785867311816637,1020,1019.9934155101471,511,1.860416092198599,1.523
511,1.8332457576160301,1020,1019.9934239178203,511,1.7134583687670577,1.524
512,1.790044413642856,1020,1019.9934323139457,511,1.5842700380698254,1.525
513,1.7985240512650158,1020,1019.9934406984505,511,1.4723230683618411,1.526
512,1.8194200625897725,1020,1019.9934490712615,512,1.376698578531975,1.527
512,1.823018275592799,1020,1019.9934574323054,512,1.2963091265855362,1.528
513,1.8258721186506364,1020,1019.9934657815086,512,1.2301193392181904,1.529
512,1.8323430180098141,1020,1019.9934741187978,512,1.1773308188734122,1.53
507,1.8339838545996128,1020,1019.9934824441,512,1.1375039970492793,1.531
506,1.8371373308662333,1020,1019.9934907573418,511,1.1106009340586867,1.532
506,1.7961154443786767,1020,1019.9934990584504,511,1.0969466580152218,1.533
510,1.7948385707095875,1020,1019.9935073473528,511,1.097119854756378,1.534
526,1.8000059903704175,1020,1019.9935156239756,510,1.1117941737343615,1.535
518,1.7842562373325435,1020,1019.993523888246,510,1.1415575494254437,1.536
511,1.7853841028893545,1020,1019.9935321400919,511,1.1867382201960601,1.537
512,1.7049122124786682,1020,1019.9935403794404,511,1.2472627505205445,1.538
511,1.6591756783189835,1020,1019.9935486062193,511,1.322564656536574,1.539
512,1.6796786771045027,1020,1019.9935568203557,510,1.4115548311954051,1.54
514,1.7499516000479767,1020,1019.9935650217769,511,1.5126588524036013,1.541
512,1.7751536665157894,1020,1019.9935732104102,511,1.6239208400081049,1.542
508,1.7383654833819349,1020,1019.9935813861823,511,1.743166924973239,1.543
512,1.6799762551235442,1020,1019.99358954902,512,1.8682132145918036,1.544
512,1.629736724000944,1020,1019.9935976988506,512,1.9970948963478925,1.545
512,1.6540146140663672,1020,1019.9936058356013,513,2.1282867145990823,1.546
511,1.660243254017765,1020,1019.9936139591998,514,2.2608820398721514,1.547
511,1.7027188443798087,1020,1019.9936220695738,513,2.3946996414328483,1.548
511,1.6334916299646804,1020,1019.993630166651,513,2.530295225254951,1.549
511,1.636459014322578,1020,1019.9936382503595,513,2.668868308649392,1.55
509,1.6451110447764257,1020,1019.9936463206275,513,2.812071141463145,1.551
510,1.625414465006862,1020,1019.9936543773836,513,2.961741330878445,1.552
511,1.624927133953461,1020,1019.9936624205563,512,3.1195913439817318,1.553
510,1.6822766616209308,1020,1019.9936704500744,512,3.28689567503241,1.554
511,1.6766512211893225,1020,1019.9936784658669,512,3.464219584407971,1.555
510,1.673819212703873,1020,1019.9936864678632,512,3.6512305395222593,1.556
511,1.5946041311560661,1020,1019.9936944559929,512,3.8466239534013074,1.557
512,1.5279618412725802,1020,1019.9937024301855,513,4.048179330473225,1.558
512,1.4210002478124537,1020,1019.9937103903706,514,4.252943559845247,1.559
511,1.4285834609237373,1020,1019.9937183364775,515,4.4575176458106,1.56
510,1.1743666420423653,1020,1019.9937262684355,516,4.6584053400786924,1.561
511,1.0478654161110228,1020,1019.9937341861735,516,4.852371071396663,1.562
512,1.0266296115959304,1020,1019.9937420896206,516,5.036753095896056,1.563
513,1.0229853553776698,1020,1019.9937499787059,517,5.20968598770957,1.564
515,1.007574761295865,1020,1019.9937578533588,516,5.3702019934836605,1.565
513,1.0260710313399566,1020,1019.9937657135085,516,5.518200104461754,1.566
511,0.9977809519364683,1020,1019.9937735590845,515,5.654292096470824,1.567
511,1.011964693266241,1020,1019.9937813900162,515,5.779553411998589,1.568
511,0.9605541232566555,1020,1019.9937892062333,515,5.895220386032746,1.569
508,0.9660049275651138,1020,1019.9937970076651,515,6.002381521545702,1.57
510,1.02309442120808,1020,1019.9938047942421,515,6.101709083365632,1.571
508,1.0207607108171362,1020,1019.9938125658948,515,6.1932699521181505,1.572
510,1.206890173883369,1020,1019.993820322554,515,6.276443646987844,1.573
512,1.3988178961223146,1020,1019.9938280641506,515,6.349962119843009,1.574
512,1.6740214531871191,1020,1019.9938357906155,515,6.41207096258622,1.575
511,1.6804251124667249,1020,1019.9938435018796,517,6.460795449241126,1.576
511,2.118308065413312,1020,1019.9938511978742,517,6.494278410347274,1.577
514,2.3363502642314797,1020,1019.9938588785305,518,6.511142966186127,1.578
512,2.735876620434315,1020,1019.9938665437805,518,6.510825580321077,1.579
511,2.9727973292347856,1020,1019.9938741935555,518,6.493826795029338,1.58
510,3.0344361167463036,1020,1019.9938818277863,517,6.461838526893245,1.581
509,3.0636187940467345,1020,1019.9938894464037,517,6.417725228725489,1.582
512,3.2910170929643314,1020,1019.9938970493383,517,6.3653573545877125,1.583
513,3.392882283326286,1020,1019.99390463652,516,6.309315339120573,1.584
512,3.497490292738524,1020,1019.9939122078788,516,6.254498286193022,1.585
511,3.63003370858588,1020,1019.9939197633446,515,6.205683002943869,1.586
511,3.652534829252488,1020,1019.9939273028474,515,6.167085487593894,1.587
511,3.6728375478821893,1020,1019.9939348263167,514,6.1419776143977565,1.588
511,3.6602000993299226,1020,1019.9939423336821,515,6.132405774411086,1.589
510,3.6442982737974163,1020,1019.993949824873,515,6.13904569869156,1.59
512,3.611094724968656,1020,1019.9939572998189,515,6.161210072782929,1.591
512,3.6185795700449948,1020,1019.9939647584499,516,6.197005702465342,1.592
512,3.649258747325034,1020,1019.9939722006959,516,6.243618102257088,1.593
511,3.6583833017467677,1020,1019.9939796264873,517,6.297685804856401,1.594
