EMG_raw,EMG_processed,EDA_raw,EDA_processed,ECG_raw,ECG_processed,time_sec
534,6.7890884504341775,905,904.2802835642746,472,-24.806039125035944,0.0
524,6.988031320846508,904,904.2794668490959,468,-27.692162272287213,0.001
534,7.36789031509011,904,904.2786583477244,463,-30.485453455014692,0.002
536,7.513894716869412,904,904.2778580739249,456,-33.082596326708874,0.003
515,7.801683060750803,903,904.2770660413993,449,-35.394577639692805,0.004
489,8.13417738316773,903,904.2762822637864,445,-37.352662848783325,0.005
499,8.19140671152186,904,904.2755067546622,441,-38.91263571381368,0.006
521,8.293507285329458,904,904.274739527539,441,-40.05692487503349,0.007
518,8.37076848663491,904,904.2739805958662,444,-40.794423940177296,0.008
512,8.528376392844432,904,904.2732299730291,449,-41.15803298500009,0.009
505,8.543097110662186,904,904.2724876723495,457,-41.20018474053072,0.01
507,8.56959064151789,904,904.2717537070852,463,-40.986836889508204,0.011
513,8.661594403893137,905,904.2710280904297,469,-40.59057983962,0.012
489,8.770783482553982,905,904.2703108355121,472,-40.08360019298603,0.013
480,8.941982732481186,904,904.2696019553968,475,-39.53124025599102,0.014
490,9.086167168738633,904,904.2689014630831,475,-38.98680560157679,0.015
503,9.112301794096162,904,904.2682093715051,474,-38.488111040744,0.016
515,9.234003015976471,904,904.2675256935307,472,-38.05604265508798,0.017
520,9.51307397953501,904,904.2668504419624,467,-37.69517469492911,0.018
525,9.841421702357941,903,904.2661836295368,461,-37.39624047318349,0.019
526,9.968745530607148,903,904.2655252689241,454,-37.14004100902819,0.02
528,10.01342059789087,903,904.2648753727284,448,-36.902209043910766,0.021
535,10.202205007346183,903,904.2642339534881,444,-36.65815229671356,0.022
536,10.340254454738908,903,904.2636010236746,442,-36.387495057669526,0.023
518,10.408727603911808,904,904.2629765956925,444,-36.07742600241218,0.024
499,10.581229713567545,904,904.2623606818796,448,-35.72453206266489,0.025
487,10.800400614546339,904,904.2617532945059,455,-35.33492884322435,0.026
502,11.01964872037378,905,904.261154445774,463,-34.92275253011564,0.027
492,11.16701069580417,905,904.2605641478184,469,-34.507316867685425,0.028
493,11.032810838444005,904,904.2599824127059,474,-34.10942451921209,0.029
510,10.83330943930955,904,904.2594092524349,478,-33.7474282895886,0.03
515,10.170946468577812,905,904.2588446789354,480,-33.433653455725754,0.031
512,10.013825125016062,904,904.2582887040688,480,-33.1717225575059,0.032
518,10.655014059223497,904,904.2577413396283,478,-32.95518377623701,0.033
510,11.114087674837608,904,904.2572025973376,476,-32.7676546918147,0.034
509,11.14383515580001,903,904.2566724888514,471,-32.58447936803574,0.035
515,10.950958376409373,903,904.2561510257545,464,-32.37568414325358,0.036
516,10.876215408840165,903,904.255638219562,458,-32.10983135980481,0.037
520,10.87585637797212,903,904.2551340817189,453,-31.758234829816427,0.038
518,10.552965934756855,903,904.2546386236003,451,-31.2989378796955,0.039
511,10.05685840588848,903,904.2541518565102,450,-30.719877853771344,0.04
505,9.735787471075144,903,904.2536737916824,452,-30.020769315077263,0.041
499,9.690048406960951,904,904.2532044402795,458,-29.21341655275895,0.042
495,9.740466277835845,904,904.2527438133933,465,-28.320388503602953,0.043
507,9.653889376122322,904,904.2522919220445,472,-27.37222324855797,0.044
514,9.568898622818306,905,904.2518487771825,479,-26.403539222069288,0.045
523,9.356487608579226,904,904.251414389685,484,-25.448583814008337,0.046
519,9.015096482139931,904,904.2509887703576,488,-24.536825568648666,0.047
517,8.52438095945529,904,904.2505719299332,491,-23.68918649122176,0.048
521,8.011450530090976,904,904.2501638790726,491,-22.915421590301264,0.049
525,7.932802179321115,904,904.249764628364,489,-22.212998077981347,0.05
531,7.91501645078672,904,904.2493741883226,487,-21.567626802548844,0.051
525,7.6571675532837755,903,904.2489925693907,482,-20.95537790605141,0.052
511,7.613405871505758,903,904.2486197819379,475,-20.346098071685425,0.053
512,7.463176814903798,903,904.2482558362611,468,-19.70766461970039,0.054
511,7.134493516529846,903,904.2479007425835,465,-19.010487444065948,0.055
497,7.178700438193937,903,904.247554511055,462,-18.231625460923365,0.056
480,7.1939227329362545,903,904.2472171517519,463,-17.357932488266528,0.057
488,7.134842562406574,903,904.2468886746773,467,-16.387784821604036,0.058
506,7.03566559476512,904,904.2465690897606,474,-15.331149279745391,0.059
514,7.268311288523777,904,904.2462584068566,483,-14.207994384266925,0.06
516,7.453484616910277,904,904.2459566357455,489,-13.045289963850802,0.061
513,7.367333423716107,904,904.2456637861327,496,-11.873042526877276,0.062
519,7.554140371171394,904,904.2453798676482,501,-10.71994417997039,0.063
519,7.622629921591378,904,904.2451048898469,505,-9.609256127894717,0.064
516,7.515908900637357,904,904.2448388622073,506,-8.555503977198306,0.065
507,7.545706146295663,904,904.2445817941328,506,-7.562442165128182,0.066
503,7.490499202001695,903,904.2443336949513,505,-6.622566845035006,0.067
519,7.286828942645069,903,904.2440945739144,500,-5.718243576424576,0.068
523,7.0308154620779115,903,904.2438644401981,495,-4.824294188331408,0.069
520,7.065901167157428,902,904.2436433029028,489,-3.911683207836166,0.07
513,7.1341787369264384,903,904.2434311710521,484,-2.951785313896422,0.071
516,7.204273524365835,903,904.243228053593,481,-1.9206258025148801,0.072
512,7.340139836891811,903,904.2430339593965,480,-0.8024824862793047,0.073
504,7.4270385193257615,903,904.2428488972563,483,0.4076764465433895,0.074
501,7.42032873670081,903,904.2426728758891,487,1.7032788781881882,0.075
506,7.436964918397925,903,904.2425059039346,496,3.066899034431434,0.076
515,7.134803735719068,903,904.2423479899547,504,4.472568041867717,0.077
519,6.950001843827112,903,904.2421991424343,511,5.889313759824729,0.078
510,6.968849811263732,903,904.2420593697801,518,7.285423099930432,0.079
507,7.061437938762205,903,904.2419286803214,522,8.632822464399561,0.08
504,7.054596162684606,904,904.2418070823086,525,9.910963787093639,0.081
511,6.787509275233707,903,904.241694583914,525,11.109680800378985,0.082
513,6.161514169864392,903,904.2415911932311,525,12.23062694162577,0.083
524,5.751281565379113,903,904.241496918275,523,13.287100023016018,0.084
521,5.867673379403944,902,904.2414117669808,519,14.302273730907821,0.085
511,6.126381569816527,902,904.241335747205,514,15.306067038061277,0.086
496,6.303779730927175,902,904.241268866724,508,16.33106612970011,0.087
499,6.57872997328057,902,904.241211133235,504,17.408046822681417,0.088
513,6.5710805460278205,902,904.2411625543558,501,18.561708232229297,0.089
508,6.512686888257198,902,904.2411231376249,502,19.807206935687965,0.09
508,6.614513447387179,902,904.2410928905005,505,21.147973532267216,0.091
507,6.827371376876421,902,904.2410718203608,511,22.575113460938837,0.092
515,6.927491646356025,903,904.2410599345043,519,24.06846769084087,0.093
519,7.000877432387746,903,904.2410572401485,527,25.59917150349776,0.094
517,6.943962203688567,903,904.2410637444308,535,27.133338243662806,0.095
524,6.904298122253954,903,904.2410794544074,540,28.63634221070066,0.096
525,6.908547024201294,903,904.2411043770534,543,30.0771026158943,0.097
519,6.963327594917351,903,904.241138519263,547,31.431785559011995,0.098
503,6.98177616841148,903,904.2411818878494,547,32.686435057555215,0.099
499,6.847148508701548,903,904.2412344895441,546,33.83819907715606,0.1
508,6.783308035384019,902,904.241296330997,543,34.89501032992772,0.101
514,6.7970753101911745,902,904.2413674187763,539,35.87379112852557,0.102
514,6.710870259174453,902,904.2414477593687,534,36.79745194315989,0.103
506,6.832619414455814,901,904.2415373591783,528,37.69111921949528,0.104
510,7.239742498173593,901,904.2416362245275,524,38.57813677147321,0.105
514,7.651408338384839,901,904.2417443616563,523,39.476419142172695,0.106
510,8.098989165953382,902,904.2418617767224,525,40.39568552493617,0.107
508,8.468128672440697,902,904.2419884758013,528,41.33597287103887,0.108
499,8.47424652582844,902,904.2421244648862,534,42.28763577200592,0.109
497,8.683376757352077,902,904.2422697498872,542,43.23281944064754,0.11
499,8.931090281762435,902,904.2424243366321,548,44.148175753971906,0.111
497,9.442652442287077,902,904.2425882308656,553,45.00841391007622,0.112
505,9.96720736343397,902,904.242761438249,558,45.79016269195528,0.113
516,10.302904166713418,902,904.2429439643605,561,46.47558446187317,0.114
521,10.39323384127306,902,904.2431358146949,562,47.055222124155215,0.115
527,10.346051008407999,902,904.2433369946633,561,47.529669680534994,0.116
525,10.339803492467093,902,904.2435475095934,560,47.90981884705771,0.117
522,10.3908040233016,902,904.243767364729,556,48.21562813938053,0.118
521,10.672927275256109,901,904.2439965652301,550,48.47356366319266,0.119
517,10.792796425325575,901,904.2442351161725,543,48.71304871367425,0.12
509,10.730015834335953,900,904.2444830225476,539,48.96240810855865,0.121
504,10.91114391484343,900,904.2447402892616,534,49.24487955191445,0.122
514,11.173170237332581,900,904.2450069211367,532,49.57527063274049,0.123
512,11.337681376243339,900,904.24528292291,534,49.95776069619794,0.124
505,11.436043267246168,901,904.2455682992344,537,50.38519011396084,0.125
504,11.485962593806981,902,904.2458630546774,545,50.839966179820934,0.126
511,11.515119773377666,902,904.246167193722,553,51.29647619871031,0.127
524,11.511797708399392,902,904.246480720766,559,51.724672514906466,0.128
530,11.528996736462139,902,904.2468036401223,564,52.09431938779359,0.129
537,11.529214875569133,902,904.2471359560176,568,52.37929645681444,0.13
537,11.54864501341688,902,904.2474776725938,569,52.56134992162269,0.131
531,11.705829770972446,902,904.2478287939069,569,52.632765264591065,0.132
505,11.804340248062852,902,904.2481893239272,567,52.59758761358444,0.133
489,11.86856757892899,901,904.2485592665397,563,52.47121498237192,0.134
485,11.932129775254182,900,904.2489386255432,558,52.278410065432276,0.135
486,11.696589700612394,900,904.2493274046509,551,52.04999152165945,0.136
467,11.53686851343912,900,904.2497256074897,543,51.818649722102414,0.137
483,11.3182184070489,900,904.2501332376013,539,51.614460180850315,0.138
502,11.279928146307467,900,904.2505502984412,535,51.46071952837617,0.139
512,11.234058528033733,900,904.2509767933783,534,51.37069180334928,0.14
512,11.050542288638487,900,904.2514127256953,537,51.345728749920426,0.141
505,10.884527094554768,901,904.2518580985887,542,51.37503334718633,0.142
492,10.739126483926587,901,904.2523129151681,550,51.43709957240322,0.143
497,10.57031414829969,901,904.2527771784556,556,51.502620073372384,0.144
513,10.411338113888956,901,904.2532508913872,561,51.53844625525549,0.145
533,10.439301254182316,901,904.2537340568114,564,51.512045364108054,0.146
538,10.618836487711146,901,904.2542266774893,567,51.39584466003979,0.147
527,10.493194981737664,901,904.254728756095,567,51.17088429222559,0.148
525,10.681401262413889,901,904.2552402952155,566,50.829305656735535,0.149
526,10.883053945436687,901,904.2557612973504,563,50.375362292928635,0.15
517,10.980661800902777,900,904.2562917649119,560,49.824834594524084,0.151
509,11.172602420286044,900,904.2568317002241,555,49.20293519082175,0.152
509,11.60668867480019,900,904.2573811055235,547,48.54098647300207,0.153
506,11.654914312656862,899,904.2579399829582,540,47.8723145585899,0.154
515,11.271104515920019,900,904.2585083345888,535,47.22791479732172,0.155
522,10.765138641849777,900,904.2590861623875,531,46.632483680676394,0.156
519,10.213969637759215,900,904.2596734682382,531,46.101368450805715,0.157
505,9.940421266130297,900,904.2602702539365,532,45.638860213064035,0.158
497,9.96834395209894,900,904.2608765211897,537,45.23806561894713,0.159
509,9.66708307449317,900,904.2614922716169,544,44.8823643297197,0.16
517,9.337238913329992,901,904.2621175067483,550,44.54822909335639,0.161
516,8.916814865705563,901,904.2627522280258,555,44.208988677968385,0.162
517,8.28197464655344,901,904.2633964368032,558,43.83898271455819,0.163
510,7.885207050420803,900,904.2640501343461,560,43.41751093496136,0.164
512,7.899220467880964,901,904.2647133218309,559,42.932019877573346,0.165
519,7.970295839590331,901,904.2653860003454,558,42.38008590482479,0.166
518,7.92840910568483,900,904.2660681708892,556,41.76992378645117,0.167
514,7.921399269198401,900,904.2667598343721,551,41.11935160160601,0.168
513,7.71139011334315,900,904.2674609916146,543,40.453352245769864,0.169
519,7.447941107307326,899,904.2681716433469,536,39.80056690546927,0.17
523,7.404381742095199,899,904.2688917902094,529,39.1892121010584,0.171
511,6.96601005408867,900,904.2696214327523,525,38.643003747496714,0.172
499,6.482044071165663,900,904.2703605714357,523,38.17767959106563,0.173
500,6.343986688824308,900,904.2711092066309,523,37.798629947987344,0.174
500,6.251492772183117,900,904.2718673386187,527,37.49998704064421,0.175
495,6.055392241700175,901,904.2726349675902,533,37.26530972992851,0.176
488,6.112768981260329,901,904.2734120936473,540,37.06976580512995,0.177
496,6.085332340594216,901,904.2741987168013,545,36.88349504970168,0.178
509,6.099567441704778,901,904.274994836974,549,36.6756682258896,0.179
511,5.991050028360776,901,904.2758004539976,552,36.41866531695287,0.18
511,6.063380867109464,901,904.2766155676138,553,36.09179038093131,0.181
517,6.168037179055196,901,904.2774401774743,552,35.684014490446856,0.182
515,6.355861470467736,900,904.2782742831403,551,35.19537692218924,0.183
519,6.527024808362061,900,904.2791178840828,547,34.63685769484854,0.184
517,6.425179941744429,900,904.279970979683,542,34.028739475829965,0.185
516,6.437466206247796,900,904.2808335692314,534,33.39768100738592,0.186
520,6.419717025237474,900,904.2817056519282,527,32.77290412546119,0.187
520,6.466995420602482,899,904.2825872268825,521,32.18202769691574,0.188
518,6.384164398030538,900,904.2834782931129,518,31.647141658937258,0.189
515,6.354355846294983,900,904.2843788495477,516,31.181688503530474,0.19
512,6.436109657444118,900,904.285288895024,518,30.788608215966516,0.191
505,6.4889251147307245,900,904.2862084282876,522,30.460021405919075,0.192
504,6.606924863816969,901,904.2871374479935,528,30.178501237381592,0.193
510,6.70573819772186,901,904.2880759527054,535,29.919751555472395,0.194
511,6.829399048295506,900,904.289023940896,540,29.656302180013753,0.195
511,6.79484736729469,901,904.2899814109462,544,29.361684784124268,0.196
514,6.684381656690574,901,904.2909483611459,547,29.014485858324736,0.197
520,6.897265978093258,901,904.2919247896932,547,28.60169412875017,0.198
520,6.699214803797787,901,904.292910694696,546,28.12086152240594,0.199
516,6.80554363885168,901,904.2939060741708,543,27.58076235684108,0.2
519,6.874407525834078,900,904.2949109260428,538,27.000441896899865,0.201
512,6.721879763231327,900,904.2959252481462,532,26.40676665153946,0.202
507,6.352278069117284,900,904.296949038224,524,25.83079766130114,0.203
511,6.104651341533413,899,904.2979822939285,518,25.303478037194168,0.204
505,6.11187282623154,899,904.2990250128203,512,24.851233091308305,0.205
496,6.251538799647346,900,904.3000771923691,509,24.492107325960543,0.206
495,6.305390011373709,900,904.3011388299535,509,24.23299927805512,0.207
496,6.378245198023019,900,904.3022099228599,512,24.068407925939557,0.208
500,6.642958810282325,900,904.303290468283,518,23.980892011283977,0.209
508,6.970342960899835,901,904.3043804633255,525,23.943197114665953,0.21
514,7.119023141243452,901,904.3054799049994,532,23.921763067650073,0.211
518,7.144207214694249,901,904.3065887902251,537,23.881125104465333,0.212
510,7.103156797103449,901,904.3077071158316,541,23.788597040613986,0.213
512,7.339900301730651,901,904.3088348785561,543,23.61859041833673,0.214
515,7.488100435923494,901,904.309972075044,543,23.355980503892248,0.215
521,7.560201563845427,901,904.3111187018492,541,22.998065554445947,0.216
523,7.79729725436281,901,904.3122747554341,537,22.554858807722066,0.217
518,8.067762187936166,900,904.31344023217,532,22.04767744971389,0.218
519,8.181986311986307,900,904.3146151283361,525,21.506221424038817,0.219
516,8.17413069080971,900,904.3157994401197,517,20.964539354547036,0.22
518,8.329348690890068,900,904.3169931636173,511,20.456432949400583,0.221
521,8.471755150725398,900,904.318196294834,507,20.010932772031513,0.222
510,8.58604443535484,900,904.3194088296834,504,19.648472321901902,0.223
493,8.700040826150001,901,904.3206307639878,506,19.37829125543704,0.224
498,8.861986938933137,900,904.3218620934779,510,19.197424176824665,0.225
501,8.946734685207783,901,904.3231028137932,516,19.09140367817808,0.226
508,8.85588522815795,901,904.3243529204826,523,19.036559585921225,0.227
507,8.973122770917229,901,904.3256124090037,529,19.00356920668755,0.228
510,8.978451236546464,901,904.3268812747231,534,18.961740982695602,0.229
503,8.984751750196935,901,904.3281595129163,536,18.88342099706431,0.23
508,8.919427881340606,902,904.329447118768,538,18.747908124945493,0.231
520,8.68505035039172,901,904.3307440873716,537,18.54434433246779,0.232
529,8.5743080223069,901,904.3320504137284,535,18.273195271768387,0.233
535,8.415164794469247,901,904.333366092749,531,17.946130280636645,0.234
525,8.410452425617786,901,904.3346911192518,527,17.584325363544306,0.235
517,8.504690215799965,900,904.3360254879647,520,17.21542274018686,0.236
504,8.562576407877183,900,904.3373691935233,513,16.86956226712998,0.237
490,8.539350355581075,900,904.3387222304725,507,16.57503159511261,0.238
497,8.575452853857774,900,904.3400845932662,503,16.35414406152897,0.239
503,8.609630156750844,900,904.3414562762665,502,16.21993224109017,0.24
499,8.544489653375198,900,904.3428372737445,504,16.17413790342836,0.241
491,8.358718766407701,901,904.3442275798799,508,16.206797907257712,0.242
499,8.157379058950209,901,904.3456271887609,515,16.29749641085286,0.243
510,8.145886732815356,902,904.347036094384,522,16.4181118510569,0.244
520,8.150356935106016,902,904.3484542906546,528,16.536670111458662,0.245
518,8.13352047061065,902,904.3498817713872,533,16.62175677181887,0.246
520,8.063389514659505,902,904.3513185303051,536,16.646864619000958,0.247
526,7.902604761366494,901,904.3527645610399,537,16.594066519234087,0.248
528,7.889925533863244,902,904.3542198571319,536,16.456502554701288,0.249
521,7.559493610449253,901,904.3556844120309,534,16.23933713131028,0.25
514,7.3277537309157825,901,904.3571582190958,528,15.959052811478614,0.251
519,7.306482179239903,901,904.3586412715946,523,15.641175718266739,0.252
515,7.31920383782457,900,904.3601335627042,515,15.316744050493366,0.253
513,7.352234398336524,900,904.3616350855115,508,15.018008452739155,0.254
513,7.324318244296909,900,904.3631458330129,504,14.77396539403939,0.255
509,7.264392164320288,901,904.3646657981141,500,14.606353593702002,0.256
500,7.323626409178949,901,904.3661949736294,501,14.52668111699001,0.257
505,7.18288324226032,901,904.3677333522829,504,14.534703366763141,0.258
500,6.878229390532495,902,904.3692809267083,511,14.618560295206047,0.259
504,6.420228784301179,902,904.3708376894489,519,14.756536831476371,0.26
504,6.189980513853946,902,904.3724036329587,524,14.920173279975483,0.261
507,6.151204314669116,902,904.3739787496012,529,15.078262053897745,0.262
513,6.078260115045395,902,904.3755630316492,532,15.20115334972506,0.263
514,5.840753837163645,902,904.3771564712853,534,15.264767244532653,0.264
512,5.642014684296789,902,904.3787590606017,534,15.253767920697785,0.265
511,5.569486659155508,902,904.380370791601,533,15.16348157837466,0.266
513,5.384428257514301,902,904.3819916561948,531,15.000313237346083,0.267
518,5.135793426619397,901,904.3836216462056,526,14.780617881112166,0.268
519,4.946385887247204,901,904.385260753366,520,14.528186651036739,0.269
516,5.0126346539142235,900,904.386908969319,513,14.270696839298585,0.27
514,4.9822258869523806,900,904.3885662856188,507,14.03562189305783,0.271
514,4.995078792487082,901,904.3902326937297,503,13.846181793370599,0.272
510,5.059545123010122,901,904.3919081850269,500,13.717918105118256,0.273
511,4.922392907121683,901,904.393592750797,502,13.656396254046694,0.274
509,4.600708774225164,901,904.3952863822379,505,13.656378727414523,0.275
503,4.4974430729071155,902,904.3969890704584,512,13.702598717444324,0.276
507,4.47912682473569,902,904.3987008064778,519,13.772026491168882,0.277
506,4.35399843239663,902,904.400421581227,526,13.837298433410671,0.278
512,4.305713330454544,902,904.4021513855478,529,13.870807914287942,0.279
515,4.341818724636171,902,904.4038902101929,532,13.848864962836922,0.28
518,4.292479835336303,902,904.405638045826,534,13.755329018915015,0.281
513,4.381263934352364,902,904.407394883021,534,13.58419948160781,0.282
509,4.203924378136243,902,904.4091607122627,532,13.3407951246457,0.283
512,4.072188084460659,902,904.410935523947,528,13.041345012843275,0.284
514,4.171953437648732,901,904.4127193083805,522,12.711028503256214,0.285
515,4.14568194175342,901,904.414512055781,515,12.380715716620086,0.286
508,4.134022912309988,901,904.4163137562778,508,12.08284516343392,0.287
502,4.125742499460668,901,904.4181243999114,503,11.847004962247246,0.288
507,4.097757797253375,901,904.4199439766339,499,11.695836540301372,0.289
507,4.123789161499984,901,904.4217724763089,499,11.641843493240353,0.29
508,4.169612419643771,901,904.4236098887113,501,11.68556575859472,0.291
504,4.326045892752967,902,904.425456203528,506,11.81538682424392,0.292
508,4.417751817270012,902,904.427311410358,514,12.009007488876936,0.293
515,4.369827573080618,902,904.4291754987125,520,12.236379573856262,0.294
518,4.363661378743853,903,904.4310484580151,526,12.463684894566498,0.295
519,4.373500132947533,902,904.4329302776014,530,12.65780135385765,0.296
523,4.437072404371024,903,904.4348209467198,533,12.79063907280666,0.297
519,4.484595180242294,903,904.436720454532,533,12.84275874741501,0.298
511,4.615238452713599,902,904.438628790113,532,12.805791936629975,0.299
515,4.815814274346016,902,904.4405459424511,531,12.683349928839025,0.3
514,4.969634081653743,902,904.4424719004478,526,12.490310812639116,0.301
510,4.997966675517512,902,904.4444066529171,520,12.25058898407872,0.302
510,4.933101455367246,902,904.4463501885865,513,11.993693774141882,0.303
508,4.863660982836584,901,904.4483024960963,507,11.750550074139325,0.304
512,4.9701365182556065,901,904.450263564,503,11.549159820664768,0.305
502,5.074412571901636,901,904.4522333807639,499,11.410710361652184,0.306
511,5.165439332481001,902,904.4542119347674,499,11.346676921593112,0.307
509,5.4421563762664835,902,904.456199214303,503,11.357327795236925,0.308
497,5.71464301284321,902,904.4581952075768,508,11.431840496281371,0.309
503,5.9427702484586415,902,904.460199902709,515,11.550003263600466,0.31
518,5.987186123629367,903,904.4622132877333,522,11.685245385058918,0.311
515,6.060123304662538,903,904.4642353505982,527,11.8085491889998,0.312
511,6.230254698168515,903,904.4662660791663,530,11.892676054792362,0.313
507,6.1355673661304015,903,904.4683054612145,532,11.916104237732963,0.314
515,6.202873546586653,903,904.4703534844347,532,11.866127566189386,0.315
519,6.370795575260564,903,904.4724101364326,532,11.740687624235255,0.316
518,6.637976420341497,902,904.4744754047291,529,11.548687109592812,0.317
515,6.906103230705326,902,904.47654927676,524,11.308736435693845,0.318
519,6.994680916240208,902,904.4786317398765,518,11.046497385144223,0.319
516,6.967174227609685,902,904.4807227813448,510,10.790983409728735,0.32
506,6.937572576479671,902,904.4828223883463,504,10.57033045529381,0.321
505,6.829678445043776,902,904.4849305479787,499,10.407640016267273,0.322
504,6.721158032905188,902,904.4870472472551,498,10.317498951226028,0.323
500,6.850661968845824,902,904.4891724731044,499,10.30369233420684,0.324
502,7.00224414840943,902,904.4913062123721,503,10.358456218617087,0.325
501,7.046993833900668,903,904.4934484518196,511,10.463391803645745,0.326
511,7.268555583778437,903,904.4955991781237,518,10.59191686224181,0.327
509,7.364685274209758,903,904.4977583778775,523,10.712904576592578,0.328
518,7.3568314146094185,903,904.4999260375901,527,10.794991166684474,0.329
520,7.3409486539161914,903,904.5021021436871,531,10.810946739768717,0.33
523,7.3624623081300555,903,904.5042866825108,532,10.741505623659059,0.331
527,7.215026786410805,903,904.5064796403201,531,10.578134975315749,0.332
528,7.323722657557028,903,904.5086810032915,530,10.324367574564368,0.333
524,7.480933869459835,903,904.5108907575193,526,9.995516285826131,0.334
516,7.3543946610703,903,904.5131088890155,521,9.616800665740058,0.335
504,7.281320481560238,902,904.5153353837097,514,9.220126383135899,0.336
499,7.225947772324852,902,904.5175702274498,506,8.839941357170463,0.337
508,7.1326220599639045,902,904.5198134060017,501,8.508724806532056,0.338
503,7.270704459109332,901,904.5220649050491,497,8.252724769058771,0.339
500,7.34508377344829,902,904.5243247101942,497,8.088531779857272,0.34
494,7.415831131321433,902,904.5265928069576,499,8.020961006704244,0.341
492,7.393209296533651,903,904.5288691807783,504,8.04252836262145,0.342
503,7.300771813480587,903,904.5311538170141,510,8.134577301250841,0.343
515,7.514610627002164,903,904.5334467009412,517,8.269878404287978,0.344
516,7.379484326374939,903,904.535747817754,522,8.416319833261387,0.345
515,7.504443666174048,903,904.5380571525658,526,8.54116333463719,0.346
517,7.531940694560308,903,904.5403746904091,528,8.615276290015062,0.347
527,7.4881123614590805,903,904.5427004162358,529,8.616769389285942,0.348
519,7.4967991937442955,903,904.5450343149179,529,8.533562748209834,0.349
519,7.392659502307182,903,904.5473763712467,528,8.364553274848491,0.35
524,7.213835801526544,903,904.5497265699333,524,8.11924273126932,0.351
518,7.253080158345575,903,904.5520848956086,518,7.815889397959924,0.352
509,7.555023000533513,902,904.5544513328238,511,7.478445928276737,0.353
511,7.709914969354047,902,904.5568258660511,504,7.132718159271056,0.354
512,7.715431481562459,902,904.5592084796837,499,6.802298372149722,0.355
513,7.596891207232829,902,904.5615991580358,495,6.504869319232899,0.356
504,7.509935218366701,902,904.5639978853437,495,6.249430342509416,0.357
503,7.360856670358952,903,904.5664046457655,498,6.034866763662872,0.358
502,7.136129591901031,903,904.5688194233812,504,5.850085967372041,0.359
508,7.001147882122809,903,904.571242202192,510,5.6757086222693385,0.36
508,7.180789737790296,903,904.5736729661207,516,5.48706994325864,0.361
511,7.303107068561614,903,904.576111699012,520,5.258092515455281,0.362
519,7.208593961606352,903,904.5785583846323,524,4.965468210529826,0.363
518,7.2012946740031145,903,904.5810130066702,527,4.592546181811541,0.364
518,7.0489954635069925,903,904.5834755487372,527,4.132366666618316,0.365
518,7.011492280368175,903,904.5859459943667,525,3.5893968668209904,0.366
509,6.965979171105759,903,904.5884243270152,522,2.9797000700622656,0.367
496,6.653540351624371,903,904.5909105300625,516,2.3294812400831906,0.368
511,6.506598194718182,903,904.5934045868125,509,1.6721751802071991,0.369
523,6.460610724441292,903,904.5959064804929,502,1.0444482719911325,0.37
517,6.405006923585728,902,904.598416194255,495,0.4816437529069961,0.371
515,6.364901543568824,902,904.6009337111749,490,0.01328954109689745,0.372
501,6.398326278067156,903,904.603459014253,488,-0.34070933908472123,0.373
507,6.198506800438829,902,904.6059920864135,489,-0.572658999835149,0.374
508,6.218853298384899,903,904.6085329105048,493,-0.6880789472034788,0.375
501,6.20326749450091,903,904.6110814692996,500,-0.7049768558197675,0.376
493,5.94237273191288,904,904.6136377454962,507,-0.6515017563217085,0.377
503,5.844841183779034,903,904.6162017217179,512,-0.562311179549031,0.378
504,5.846173720931858,904,904.6187733805126,517,-0.47416293005129345,0.379
508,5.84885098927429,904,904.6213527043545,520,-0.42133781573598594,0.38
517,5.856104673642126,904,904.6239396756426,522,-0.4315074189081174,0.381
520,5.924710059175398,904,904.6265342767018,522,-0.522586881443641,0.382
516,5.796190525829678,903,904.6291364897828,520,-0.7009714136147043,0.383
517,5.679904016233004,903,904.6317462970626,517,-0.9613661331992799,0.384
525,5.513226727922814,903,904.6343636806453,511,-1.2882043595358312,0.385
525,5.471888817385056,903,904.6369886225623,504,-1.65843446180103,0.386
519,5.42002669300024,903,904.639621104772,496,-2.0452660613754814,0.387
515,5.553902918758608,903,904.6422611091591,491,-2.422329218361149,0.388
512,5.467467015212108,903,904.6449086175351,487,-2.767638477469844,0.389
501,5.405310681852942,903,904.6475636116386,487,-3.066781393389029,0.39
497,5.436018576945465,903,904.6502260731361,489,-3.3148673867514047,0.391
507,5.39907083258241,903,904.6528959836221,493,-3.516960041707952,0.392
512,5.371517416507233,903,904.6555733246203,500,-3.686944265286517,0.393
512,5.26100706720016,904,904.6582580775832,506,-3.8450129462960003,0.394
509,5.296340688358246,904,904.6609502238937,511,-4.0141597734247325,0.395
512,5.074740826461541,904,904.6636497448636,515,-4.216205354445079,0.396
519,4.97586543060018,904,904.666356621734,517,-4.467943663188055,0.397
517,4.941388634699074,904,904.6690708356756,518,-4.777970617234737,0.398
502,4.991863245941469,904,904.6717923677876,516,-5.144654878984033,0.399
507,5.1234548142703025,903,904.6745211990989,513,-5.555550156118109,0.4
511,5.254027784681782,903,904.6772573105683,510,-5.988350817193606,0.401
512,5.185163929946541,903,904.680000683085,504,-6.413283526569124,0.402
513,4.892850971985368,903,904.6827512974693,497,-6.796631585903947,0.403
514,4.7629709073299376,903,904.685509134472,490,-7.104928416405804,0.404
513,4.683119251895836,903,904.6882741747755,486,-7.30925299976859,0.405
508,4.681809078810466,903,904.6910463989935,482,-7.389031221392842,0.406
511,4.683698894502289,903,904.693825787671,483,-7.334803102880116,0.407
515,4.665030547225552,903,904.6966123212851,486,-7.149553541257198,0.408
512,4.7107773990823,904,904.699405980245,492,-6.848405398444219,0.409
513,4.790735399608229,904,904.7022067448929,500,-6.456708650689538,0.41
512,4.658852543031769,904,904.7050145955031,506,-6.006790505587883,0.411
518,4.418550481777924,904,904.7078295122828,511,-5.533821128981247,0.412
515,4.314476238847066,904,904.7106514753718,515,-5.071368304555356,0.413
515,4.382960723972701,904,904.7134804648435,518,-4.6472475528789055,0.414
520,4.4999638864068014,904,904.7163164607045,518,-4.280223645122051,0.415
516,4.44066478577515,904,904.719159442895,518,-3.9779979314578746,0.416
512,4.168724305854457,904,904.7220093912897,516,-3.736742017045746,0.417
501,4.072638829214702,903,904.7248662856977,511,-3.5422334959668795,0.418
509,4.176739266985628,903,904.7277301058624,506,-3.372436770417131,0.419
511,4.1816725192710225,903,904.7306008314621,499,-3.20117556718454,0.42
509,4.145956817124684,903,904.7334784421099,493,-3.002388446747975,0.421
509,4.1543748940267,903,904.7363629173545,489,-2.754367787117697,0.422
500,4.003646226466752,903,904.73925423668,487,-2.4433738376197645,0.423
499,4.011230139261419,903,904.7421523795064,488,-2.066094940659195,0.424
503,3.9855642526594997,903,904.7450573251898,493,-1.6305852682313524,0.425
503,4.085042212985156,904,904.747969053023,500,-1.1555305370056312,0.426
509,4.340511782826145,904,904.7508875422353,508,-0.6679367097289183,0.427
513,4.439120863362764,904,904.7538127719938,513,-0.19956676919099575,0.428
513,4.424894954292485,904,904.7567447214026,518,0.2173717732821354,0.429
514,4.46430413775548,904,904.7596833695036,522,0.5546871376175869,0.43
518,4.669928910833935,904,904.7626286952766,524,0.7921985260988862,0.431
518,4.89880861262569,905,904.7655806776381,524,0.9207238413227493,0.432
519,5.191706646508579,904,904.7685392954429,523,0.9436548172885892,0.433
520,5.321160375663759,904,904.7715045274838,520,0.8769005559080448,0.434
519,5.368901077850887,904,904.7744763524927,515,0.7471931755201875,0.435
512,5.350691116204679,903,904.7774547491406,508,0.588964593949009,0.436
510,5.379892174863439,903,904.7804396960389,501,0.4401962570563585,0.437
503,5.437323050300057,903,904.7834311717389,496,0.33778838745047984,0.438
506,5.528479539010545,903,904.7864291547313,491,0.31306891383275626,0.439
503,5.501149303347485,903,904.7894336234468,491,0.38804950910318164,0.44
511,5.533859686148463,903,904.7924445562572,492,0.5729351922928769,0.441
511,5.5636050319227195,904,904.7954619314747,497,0.8652175224823233,0.442
506,5.573289852205406,904,904.7984857273519,504,1.2504551466867107,0.443
511,5.464529801666277,904,904.8015159220832,512,1.704603954169691,0.444
512,5.538063293568506,905,904.8045524938044,518,2.1975405792297584,0.445
511,5.5318308829341944,904,904.807595420593,521,2.697262503069007,0.446
511,5.625845990589077,904,904.8106446804695,525,3.174169240883565,0.447
517,5.765833473018651,904,904.8137002513977,526,3.604838402729186,0.448
519,5.684190222635256,904,904.8167621112834,526,3.974797796620758,0.449
523,5.5774040645460445,904,904.819830237976,526,4.279941354395117,0.45
524,5.618160791498487,904,904.822904609267,523,4.526421748860508,0.451
518,5.6461243345710415,904,904.8259852028909,518,4.729055920781653,0.452
512,5.610549195894527,903,904.8290719965266,511,4.908481040368694,0.453
509,5.624895942314709,903,904.8321649677969,504,5.087475291475285,0.454
499,5.670789232860942,903,904.835264094269,499,5.286984923301497,0.455
497,5.684148786172502,903,904.8383693534546,496,5.522451847128602,0.456
496,5.639170513223312,904,904.8414807228108,497,5.800999358713225,0.457
503,5.689005813533542,904,904.8445981797403,500,6.119908187082522,0.458
508,5.815172948928531,904,904.8477217015915,506,6.466619607216965,0.459
512,5.900550515616279,905,904.8508512656584,513,6.8202691885728495,0.46
513,5.957568061752209,905,904.8539868491815,519,7.154522860261492,0.461
522,6.059516867036246,905,904.857128429347,525,7.441293901294283,0.462
519,6.118183695996269,905,904.8602759832883,529,7.654794123979275,0.463
515,6.136877228984267,904,904.8634294880851,531,7.775330548071513,0.464
521,6.288050517958881,905,904.8665889207653,531,7.792301776863986,0.465
519,6.383590939015016,905,904.8697542583047,530,7.705965538278754,0.466
510,6.61644644947484,905,904.872925477627,528,7.527721155120559,0.467
516,6.843494454146818,904,904.876102555603,523,7.278854227373055,0.468
517,7.002865011862424,904,904.8792854690525,516,6.987901126967768,0.469
512,7.22221377108926,903,904.882474194744,509,6.6869840803705465,0.47
504,7.290406493426464,903,904.8856687093951,503,6.407618896435552,0.471
503,7.3664784121995535,903,904.8888689896733,499,6.176582541624038,0.472
504,7.456290297041545,904,904.8920750121953,497,6.012429242548201,0.473
505,7.395976222685831,904,904.8952867535287,498,5.923157419177946,0.474
501,7.344818717918778,904,904.8985041901916,502,5.905366584716505,0.475
502,7.271216706152049,905,904.9017272986536,508,5.945027178796762,0.476
511,7.150835190870175,905,904.904956055335,516,6.019749734279299,0.477
514,7.1211793234559915,905,904.9081904366077,521,6.102219833654887,0.478
515,7.213666498571217,905,904.9114304187948,526,6.164297303804044,0.479
515,7.300858645614924,905,904.9146759781706,529,6.1811878800127955,0.48
515,7.109400741785206,905,904.9179270909617,531,6.135093619444521,0.481
521,6.815823400256279,905,904.9211837333473,530,6.017829763333109,0.482
524,6.520960556931827,905,904.9244458814592,527,5.832045110834804,0.483
525,6.392977266135056,904,904.9277135113816,524,5.590878712686707,0.484
520,6.429607856804719,904,904.9309865991527,519,5.316102213505831,0.485
518,6.5453817451131,904,904.9342651207639,511,5.035007314551983,0.486
515,6.581984515450831,904,904.9375490521611,504,4.776475910592936,0.487
503,6.41734378651635,904,904.9408383692447,499,4.566793105315068,0.488
496,6.332494290921547,904,904.9441330478707,496,4.425810092901886,0.489
499,6.288313142251854,904,904.947433063849,496,4.364022284086945,0.49
497,6.173973111848275,904,904.9507383929457,498,4.38100023713705,0.491
500,6.067323265482661,905,904.9540490108824,503,4.46541530634303,0.492
496,6.080270811512354,905,904.9573648933368,511,4.596668355627964,0.493
500,6.149304615081693,905,904.9606860159428,517,4.747894042336078,0.494
506,6.257474107673491,905,904.9640123542903,522,4.889911594925817,0.495
516,6.344483962087515,905,904.9673438839257,526,4.995556945031661,0.496
515,6.216690031212563,906,904.9706805803528,529,5.043778986957024,0.497
513,6.090210408852328,905,904.9740224190334,531,5.0229169105110305,0.498
516,6.042870590251601,905,904.9773693753871,528,4.932685980319723,0.499
518,5.9402999783266965,905,904.9807214247919,526,4.78456929868012,0.5
518,5.847828942640241,905,904.9840785425847,522,4.600521741100748,0.501
515,5.757954973914344,904,904.9874407040618,516,4.410113541072533,0.502
517,5.913715463731729,904,904.9908078844788,509,4.2464474673442485,0.503
519,6.191796557130028,904,904.9941800590506,503,4.141349892085537,0.504
514,6.289495821673895,904,904.9975572029513,499,4.120440418584247,0.505
512,6.218718583609669,904,905.0009392913154,496,4.198710346972779,0.506
512,6.13563945801902,905,905.0043262992386,497,4.377180060557619,0.507
508,6.060477420713851,905,905.0077182017777,501,4.641065913811057,0.508
507,5.913201472048279,905,905.0111149739497,505,4.959688194275769,0.509
505,5.7613841027889166,905,905.0145165907334,512,5.288123108885868,0.51
508,5.881764058089814,905,905.0179230270692,518,5.570378228914255,0.511
510,5.969915241988262,906,905.02133425786,523,5.743685216485433,0.512
508,5.990284156117735,906,905.0247502579709,526,5.7433810967802925,0.513
512,5.8898503206083985,905,905.0281710022305,528,5.5078038486116645,0.514
516,5.627046883653203,905,905.0315964654301,527,4.982660908145445,0.515
510,5.4159350749316335,905,905.035026622325,526,4.124429875722756,0.516
510,5.217340766364357,905,905.0384614476346,523,2.9025011766296385,0.517
519,5.082596379128241,905,905.0419009160427,517,1.2999515836597817,0.518
523,5.00917955644409,905,905.0453450021968,510,-0.6869757052843911,0.519
516,4.961422606744798,904,905.0487936807098,502,-3.050435171978598,0.52
512,5.021470578706903,904,905.0522469261595,493,-5.7731991945259775,0.521
509,5.013522794634587,904,905.0557047130891,486,-8.831063210277149,0.522
507,4.919306691685805,904,905.0591670160078,481,-12.194953467999635,0.523
512,4.931983511121023,904,905.062633809391,479,-15.832322412844642,0.524
517,4.86793010974347,905,905.0661050676802,479,-19.707556213161098,0.525
515,4.860872587544175,905,905.0695807652849,481,-23.781309468828333,0.526
504,4.853344864283463,905,905.0730608765814,483,-28.00889134905023,0.527
493,4.904647792876225,906,905.0765453759138,484,-32.33801852515814,0.528
503,4.838709251135217,906,905.080034237594,483,-36.70639040163019,0.529
509,4.748554238884385,906,905.0835274359026,482,-41.039609367868394,0.53
512,4.82470543047711,906,905.0870249450892,480,-45.24995573115409,0.531
503,4.860454925046213,906,905.0905267393715,475,-49.236439263601305,0.532
506,4.91098707555245,905,905.0940327929371,470,-52.88640050973047,0.533
516,5.00821886810027,905,905.0975430799432,462,-56.078743264136435,0.534
528,5.143549302554173,905,905.1010575745178,454,-58.688667266592425,0.535
521,5.166173761553488,905,905.1045762507594,445,-60.59356358178636,0.536
518,5.122641378949234,904,905.1080990827368,439,-61.679562523224995,0.537
513,5.279954605262707,905,905.1116260444901,434,-61.84811120632397,0.538
511,5.341960106998204,904,905.1151571100313,433,-61.0219232437197,0.539
512,5.452332070377616,905,905.1186922533434,435,-59.14969305306109,0.54
514,5.405255822856579,905,905.1222314483812,440,-56.20909444067854,0.541
506,5.375201713102994,905,905.1257746690712,448,-52.2077684574498,0.542
501,5.442196721383748,906,905.1293218893128,457,-47.182222016535604,0.543
502,5.496725885763931,906,905.1328730829781,468,-41.1947765720382,0.544
504,5.34212323307618,906,905.1364282239132,478,-34.32889780306192,0.545
507,5.280238552827846,906,905.1399872859378,487,-26.683381994004563,0.546
511,5.297825667603333,906,905.1435502428457,499,-18.36596160524613,0.547
509,5.337814917859595,906,905.1471170684057,511,-9.486920501582384,0.548
509,5.416426530388118,906,905.1506877363612,523,-0.15328390623186958,0.549
518,5.613298214376671,906,905.1542622204308,533,9.535925172531972,0.55
518,5.715902619129782,905,905.1578404943086,543,19.492989486578754,0.551
518,5.942894984390879,905,905.161422531665,549,29.64314570903213,0.552
514,5.869361883431795,905,905.1650083061456,555,39.924548109997346,0.553
515,5.67065683112196,904,905.1685977913723,558,50.286712713458186,0.554
518,5.628968365968684,905,905.1721909609439,562,60.68778251732992,0.555
509,5.716994778228411,905,905.1757877884362,568,71.09108332718714,0.556
509,5.7473304866552155,905,905.1793882474032,578,81.46149805056001,0.557
504,5.68076876156671,905,905.182992311377,590,91.76216279849895,0.558
500,5.663061392631453,906,905.1865999538683,603,101.95188684752056,0.559
505,5.718008648497553,906,905.1902111483661,618,111.9835443290651,0.56
513,5.667307946834259,906,905.1938258683386,632,121.80351220446506,0.561
522,5.690300483079703,906,905.1974440872341,644,131.3520697214946,0.562
518,5.872326111216478,906,905.2010657784808,656,140.56455408362638,0.563
519,5.947284837166395,907,905.2046909154878,668,149.37299890297194,0.564
513,6.014919824331759,906,905.2083194716447,676,157.70796831200232,0.565
513,6.196613775066747,906,905.2119514203218,682,165.5003349896785,0.566
516,6.525132008983287,906,905.2155867348711,687,172.68282491061277,0.567
523,6.824223268909608,905,905.2192253886263,691,179.19125039540737,0.568
515,7.009053940164515,905,905.2228673549029,693,184.96545631037694,0.569
511,7.178515217232499,905,905.2265126069991,695,189.95009219312018,0.57
510,7.052139088223144,904,905.2301611181964,696,194.09538036920608,0.571
508,7.0975815953271955,905,905.2338128617602,698,197.35806695366637,0.572
503,7.1684852924389135,904,905.2374678109394,700,199.70271436502793,0.573
501,7.250154582191317,905,905.2411259389671,703,201.1034221839347,0.574
501,7.278223397609854,905,905.2447872190608,707,201.545956702641,0.575
496,7.335469123036135,906,905.2484516244224,713,201.03014417578308,0.576
507,7.434700840972488,906,905.2521191282387,716,199.57226021922617,0.577
519,7.489344659677474,906,905.2557897036816,717,197.2070530827424,0.578
518,7.574239775154911,906,905.2594633239089,716,193.9889947873831,0.579
517,7.523546823398406,906,905.2631399620647,714,189.99237484773576,0.58
509,7.445992189814018,906,905.2668195912794,709,185.309936112142,0.581
515,7.494415122213539,906,905.270502184671,702,180.0498899874735,0.582
516,7.583879557129704,906,905.2741877153445,694,174.3313227327375,0.583
521,7.669969602597948,906,905.2778761563919,683,168.2781969347331,0.584
524,7.701680951595871,905,905.2815674808927,671,162.0123419407647,0.585
524,7.702493667819098,905,905.2852616619143,657,155.64599171540155,0.586
526,7.673415372441706,905,905.2889586725137,645,149.27454561569627,0.587
518,7.639574074308181,905,905.2926584857373,635,142.9702754197228,0.588
507,7.6758685735580885,905,905.296361074621,627,136.7776646969824,0.589
500,7.788534372410656,905,905.3000664121901,622,130.7109402163126,0.59
492,7.939003686446578,905,905.3037744714593,619,124.75415063951387,0.591
491,8.155361809720489,906,905.3074852254343,618,118.86388928485766,0.592
492,8.282878249712418,906,905.3111986471116,620,112.97447691693658,0.593
493,8.198445610367497,906,905.314914709479,621,107.00515177734597,0.594
512,8.206812363895946,906,905.3186333855155,621,100.86859116937141,0.595
517,8.277042629371286,906,905.3223546481921,620,94.47994097469943,0.596
515,8.353536924007708,907,905.3260784704719,617,87.76547579910938,0.597
517,8.392324434062429,906,905.3298048253102,611,80.67005874595002,0.598
515,8.474983986642796,906,905.333533685656,602,73.16270873645391,0.599
520,8.543268885971727,906,905.3372650244512,591,65.2397970864525,0.6
523,8.622767384169784,906,905.3409988146316,579,56.92565782387449,0.601
520,8.638394383338255,905,905.3447350291269,564,48.27067692281684,0.602
518,8.798841915331058,905,905.3484736408615,547,39.34719259924082,0.603
510,8.713367009162738,905,905.3522146227539,531,30.243763189469018,0.604
509,8.698659967158774,905,905.3559579477184,515,21.058515252484685,0.605
506,8.693102047455827,905,905.3597035886652,503,11.892351092794371,0.606
504,8.707255896645375,905,905.3634515185009,494,2.8427598061592354,0.607
499,8.852271062830805,905,905.3672017101281,488,-6.001157836123945,0.608
498,8.845942296454398,906,905.3709541364456,486,-14.562052582177083,0.609
504,8.694321916552376,906,905.3747087703491,485,-22.775935852220503,0.61
511,8.599362375084658,906,905.3784655847326,483,-30.592149849747546,0.611
519,8.608746378367728,907,905.3822245524875,480,-37.97203022194415,0.612
520,8.569745016959823,907,905.3859856465042,476,-44.88673746284187,0.613
523,8.536175595868736,906,905.3897488396718,472,-51.31479158550196,0.614
521,8.460558002421031,906,905.393514104879,467,-57.2398197419673,0.615
522,8.361255877916701,906,905.3972814150142,460,-62.64893256253272,0.616
523,8.170576521664678,906,905.4010507429651,453,-67.53200037615566,0.617
517,8.041306929024726,905,905.4048220616208,445,-71.88192524172554,0.618
516,7.858825980923759,905,905.4085953438706,435,-75.69582086866276,0.619
516,7.520145713404734,905,905.412370562605,426,-78.97684340822597,0.62
517,7.5358909953760325,905,905.4161476907163,418,-81.73628494910284,0.621
505,7.4860502567297695,905,905.4199267010993,412,-83.99546929175224,0.622
499,7.633854426598086,905,905.4237075666504,409,-85.7869910533545,0.623
497,7.779696719991526,905,905.427490260269,409,-87.15491830897692,0.624
497,7.936251963021622,905,905.4312747548576,412,-88.15372629000619,0.625
495,7.90319044225044,907,905.435061023322,418,-88.84592308294003,0.626
499,7.783985427793483,906,905.4388490385719,423,-89.29853646928719,0.627
509,7.717499310860455,906,905.4426387735213,428,-89.57881867025212,0.628
505,7.7332138956553,907,905.4464302010889,432,-89.74966084613213,0.629
507,7.968862849675598,907,905.4502232941983,435,-89.86527065478221,0.63
514,8.012163543137932,906,905.4540180257782,435,-89.96764724113444,0.631
522,8.05510233510297,907,905.4578143687636,434,-90.08429463894613,0.632
517,8.143415535644824,907,905.4616122960961,432,-90.22746195401858,0.633
513,8.134753698684683,906,905.4654117807236,428,-90.39500856382733,0.634
521,8.02694307489287,906,905.4692127956009,423,-90.57278970368422,0.635
524,7.890441351630663,905,905.4730153136901,417,-90.738266624857,0.636
526,8.049300036639208,905,905.4768193079607,411,-90.86488850695339,0.637
516,8.06847146754265,905,905.4806247513901,407,-90.9266906633977,0.638
513,8.097453794100039,905,905.4844316169646,403,-90.90252119456582,0.639
505,8.194459439805183,905,905.4882398776789,403,-90.77935423913232,0.64
503,8.207620878842999,905,905.4920495065369,406,-90.55426994497954,0.641
498,8.041836696820502,906,905.4958604765523,411,-90.23486530955772,0.642
502,8.032734351149127,907,905.4996727607488,418,-89.8380810172209,0.643
511,8.166732126670762,907,905.5034863321605,425,-89.38765360053215,0.644
513,8.300496053455948,907,905.5073011638317,430,-88.91059356161233,0.645
516,8.297209804818921,907,905.5111172288186,434,-88.4332183048075,0.646
522,8.251743593626204,907,905.5149345001897,436,-87.97731642357024,0.647
526,8.18941796487629,907,905.5187529510246,437,-87.55698522961481,0.648
522,7.956392875561699,907,905.5225725544157,437,-87.17657793642523,0.649
520,7.684459890576316,906,905.5263932834683,435,-86.8300397377273,0.65
516,7.478881486307604,906,905.5302151113011,432,-86.50172448709921,0.651
518,7.293608527513313,906,905.5340380110456,427,-86.16858694990144,0.652
503,7.0924093204670715,905,905.5378619558469,422,-85.80346082653064,0.653
499,7.104010448062028,905,905.5416869188643,415,-85.37898151523402,0.654
506,7.07288941424086,905,905.545512873272,412,-84.87161582290607,0.655
504,7.062524962750102,905,905.5493397922592,410,-84.26523591798303,0.656
499,7.126098645911838,905,905.5531676490308,412,-83.55373088522516,0.657
499,7.0638148516217765,906,905.5569964168075,415,-82.74228214543687,0.658
503,7.112993969519418,906,905.5608260688258,422,-81.84711965842641,0.659
510,7.226449202500903,907,905.5646565783389,429,-80.89379391902347,0.66
519,7.120940355821701,907,905.5684879186173,435,-79.9142092414295,0.661
519,6.893209877248915,907,905.5723200629479,440,-78.94283351276503,0.662
521,6.645861457121766,907,905.5761529846361,444,-78.0126037623986,0.663
527,6.582028680883267,907,905.5799866570053,447,-77.15107442303793,0.664
521,6.736138826033951,907,905.5838210533973,448,-76.37730858355151,0.665
508,6.647038595943857,907,905.5876561471725,447,-75.69990346780322,0.666
500,6.500357239135231,906,905.5914919117106,446,-75.1163862466558,0.667
498,6.3212491511334035,906,905.5953283204109,443,-74.61403461094834,0.668
500,6.265173254392477,906,905.5991653466932,437,-74.17198959281495,0.669
506,6.351233109504151,905,905.6030029639979,432,-73.76435735896251,0.67
508,6.409932650876926,905,905.6068411457865,427,-73.36386329958354,0.671
508,6.441281077214683,905,905.6106798655406,425,-72.9455459375061,0.672
512,6.246084542142062,905,905.6145190967636,423,-72.48997485802079,0.673
512,6.0798707878408775,906,905.6183588129811,425,-71.98554951926852,0.674
507,5.871057728980669,906,905.6221989877417,429,-71.4295745950883,0.675
504,5.7676374459596715,906,905.6260395946169,435,-70.82799171043392,0.676
509,5.804243874701092,907,905.6298806072014,442,-70.19384881272322,0.677
515,5.83009432760596,907,905.6337219991136,447,-69.54477474805186,0.678
516,5.75963226003,907,905.6375637439963,451,-68.89986742524928,0.679
516,5.526982087738281,907,905.6414058155168,454,-68.27647798139058,0.68
517,5.451485037202753,907,905.6452481873665,456,-67.68737348194432,0.681
519,5.3139898659817355,907,905.6490908332615,456,-67.1386930770694,0.682
519,5.1887531194835965,907,905.6529337269433,455,-66.62899146378275,0.683
519,5.224681107380161,907,905.6567768421785,453,-66.1495066364928,0.684
515,5.5334620665360355,906,905.6606201527609,449,-65.6856154935989,0.685
513,5.798606647198203,905,905.6644636325107,444,-65.21927111507682,0.686
511,5.74058322478659,906,905.6683072552753,439,-64.73206987442943,0.687
513,5.650984850854146,905,905.6721509949294,435,-64.20849487125223,0.688
520,5.7004892212636324,905,905.6759948253758,432,-63.63884179174464,0.689
512,5.470109948099499,906,905.679838720545,433,-63.02136506508018,0.69
510,5.434711249966291,906,905.683682654396,435,-62.36328639263067,0.691
506,5.683135195031656,906,905.6875266009162,441,-61.68047218640567,0.692
505,5.649044200030578,907,905.6913705341221,449,-60.99578716000413,0.693
505,5.553799937886259,907,905.6952144280608,455,-60.336335673189495,0.694
508,5.4947296344660055,907,905.6990582568096,460,-59.72997490372082,0.695
504,5.414523186854066,907,905.7029019944766,463,-59.20159422911539,0.696
511,5.370539123116923,907,905.7067456152008,465,-58.76968692291023,0.697
515,5.355959459158669,907,905.7105890931515,465,-58.443694341837755,0.698
511,5.424598669713169,907,905.7144324025302,465,-58.22249332518749,0.699
507,5.416846138138648,906,905.7182755175699,463,-58.09424442280497,0.7
519,5.544898848355938,906,905.7221184125359,460,-58.03764213221151,0.701
517,5.66698726035119,906,905.7259610617265,455,-58.02442743601467,0.702
515,5.735875779745742,905,905.7298034394724,449,-58.022855692012925,0.703
509,5.699265197984892,905,905.7336455201378,444,-58.00167816402471,0.704
510,5.62991407039878,905,905.7374872781199,439,-57.93411244969404,0.705
510,5.570856197193943,905,905.7413286878511,437,-57.801262027090864,0.706
505,5.5220909429247,906,905.7451697237982,438,-57.59450639721647,0.707
497,5.422122370138196,906,905.749010360463,441,-57.316517296191016,0.708
487,5.28860360153609,906,905.7528505723827,447,-56.98074641451638,0.709
497,5.205210346143665,907,905.7566903341304,454,-56.60944769075271,0.71
505,5.282238847292506,907,905.7605296203157,460,-56.23050768031843,0.711
515,5.37311169580926,907,905.7643684055848,464,-55.87352641324173,0.712
523,5.458656636126602,908,905.7682066646213,468,-55.565692336856955,0.713
516,5.4424266882708245,907,905.7720443721455,470,-55.328016083793116,0.714
519,5.32129058498952,907,905.7758815029156,470,-55.17243127344644,0.715
526,5.328192816707635,907,905.779718031728,469,-55.10014900167023,0.716
520,5.3400399134704815,907,905.7835539334169,467,-55.10148413596621,0.717
519,5.3894193752051835,906,905.7873891828553,462,-55.15717687971887,0.718
519,5.420928922225136,906,905.7912237549548,456,-55.24103457947419,0.719
512,5.394493215532362,905,905.7950576246666,450,-55.323539298642714,0.72
512,5.3479250050077045,905,905.7988907669823,444,-55.3759295042059,0.721
509,5.263756480266149,906,905.8027231569339,441,-55.37419083464928,0.722
507,5.29861998151956,906,905.806554769595,439,-55.30239612705222,0.723
511,5.2821770500874,906,905.8103855800803,441,-55.15492176206302,0.724
501,5.322804601538889,906,905.8142155635467,445,-54.937225409051806,0.725
498,5.30405387542646,907,905.8180446951935,451,-54.66507657289843,0.726
506,5.23723271392042,907,905.8218729502616,458,-54.36235428682795,0.727
510,5.203221586816842,907,905.8257003040346,463,-54.05773064447152,0.728
513,5.231615296403543,907,905.8295267318391,467,-53.78071266885434,0.729
513,5.257048622859837,907,905.8333522090453,471,-53.55759651496638,0.73
515,5.312452045683866,907,905.8371767110672,472,-53.40788957903143,0.731
514,5.307907467512388,907,905.8410002133629,472,-53.34168296412171,0.732
511,5.306771603269891,906,905.8448226914353,470,-53.35832249265715,0.733
515,5.191263777523576,906,905.8486441208315,467,-53.44654964288025,0.734
519,5.012158035050196,906,905.8524644771446,462,-53.58608652468592,0.735
518,4.952415597958915,906,905.8562837360141,456,-53.75044515864801,0.736
517,4.994229211204233,906,905.860101873126,450,-53.9105744914129,0.737
513,5.068356454701384,906,905.8639188642128,445,-54.03884071941197,0.738
510,4.905620334452643,906,905.867734685054,442,-54.11278575948719,0.739
510,4.934957898318203,906,905.8715493114763,441,-54.118135685564965,0.74
509,4.994701791851918,906,905.8753627193549,443,-54.05063499302157,0.741
505,4.768780785824172,907,905.8791748846132,448,-53.916450522010294,0.742
503,4.691388198921238,907,905.8829857832233,454,-53.73109657093948,0.743
508,4.7494725984726776,907,905.8867953912061,460,-53.5170481701316,0.744
510,4.7966620044122,908,905.8906036846322,466,-53.30039816218008,0.745
510,4.877547445454321,907,905.8944106396227,469,-53.10704580862159,0.746
515,4.931071301762777,907,905.8982162323489,471,-52.958961500312796,0.747
516,4.888847207249841,907,905.9020204390324,472,-52.871049539169725,0.748
515,4.927463294436072,907,905.9058232359464,472,-52.84903785441192,0.749
513,4.965373606238111,907,905.9096245994148,470,-52.888677372317744,0.75
516,4.835123468593407,907,905.9134245058123,466,-52.97635476974782,0.751
517,4.694343691257253,907,905.917222931566,461,-53.09103071345293,0.752
517,4.628008608993262,906,905.9210198531556,455,-53.207232566076186,0.753
514,4.783450337356319,905,905.9248152471129,448,-53.2986787742796,0.754
515,4.87070593975992,906,905.9286090900227,444,-53.34201422376957,0.755
512,4.879402845666827,906,905.9324013585242,441,-53.32010994902477,0.756
506,4.8323976978690055,906,905.9361920293104,443,-53.224436131134595,0.757
504,4.90956868509748,907,905.9399810791283,446,-53.05615048082502,0.758
497,4.951918098174586,907,905.9437684847794,451,-52.82573582091762,0.759
501,5.063860727895254,907,905.9475542231197,459,-52.55123967544112,0.76
504,5.142926048363853,907,905.9513382710605,464,-52.25537856664325,0.761
504,5.092865068786456,908,905.9551206055688,469,-51.96193658858252,0.762
507,5.0965319746679745,907,905.958901203668,472,-51.69198631340555,0.763
518,5.12191516237762,907,905.9626800424379,474,-51.46047810451173,0.764
523,5.099863938797971,907,905.9664570990146,474,-51.27368393849757,0.765
515,5.148553954499245,907,905.9702323505919,472,-51.12785743552277,0.766
517,5.15453258245539,907,905.9740057744214,470,-51.00930257724636,0.767
522,5.160074721627759,907,905.977777347812,466,-50.89585200881384,0.768
522,5.1333092915619085,906,905.9815470481315,460,-50.759565099332725,0.769
516,5.10727550877587,906,905.985314852806,454,-50.57028835019088,0.77
515,5.207994130593851,906,905.9890807393214,450,-50.2995972032009,0.771
511,5.225294844447821,906,905.9928446852228,447,-49.92457763276366,0.772
505,5.222707154901872,906,905.9966066681155,447,-49.430920754848,0.773
509,5.273276193176931,906,906.0003666656645,448,-48.814895021406166,0.774
507,5.308125160148159,907,906.0041246555957,452,-48.08391613316478,0.775
505,5.29572901692812,907,906.0078806156962,460,-47.255632334486904,0.776
513,5.308563585989235,908,906.0116345238152,467,-46.355653878697744,0.777
521,5.452178951657975,907,906.015386357863,472,-45.41424818701686,0.778
516,5.523269508933817,908,906.0191360958111,477,-44.462465304598595,0.779
510,5.524236342657345,908,906.0228837156928,480,-43.52822946121523,0.78
511,5.47452085044015,907,906.0266291956049,483,-42.63292534772233,0.781
518,5.472906488751293,907,906.0303725137063,483,-41.78892969271036,0.782
513,5.522300111746848,907,906.0341136482206,481,-40.9984047917804,0.783
503,5.687345110876696,907,906.0378525774353,480,-40.25349898813595,0.784
499,5.633733198582087,907,906.0415892797013,476,-39.53791073081934,0.785
508,5.523531114534295,907,906.0453237334343,471,-38.829590383666336,0.786
505,5.389214789550528,906,906.0490559171155,465,-38.10419905206169,0.787
509,5.244261213258739,906,906.0527858092921,462,-37.338836013519895,0.788
510,5.159161551177178,906,906.0565133885768,460,-36.51550336309832,0.789
507,5.079526922392328,906,906.0602386336484,460,-35.623809599185655,0.79
508,4.929355736566023,906,906.0639615232518,464,-34.66252240595748,0.791
504,4.908531926360417,907,906.0676820361988,470,-33.63975009914801,0.792
504,4.9393873587537875,907,906.071400151369,477,-32.57173501627867,0.793
513,4.962090457077698,907,906.0751158477093,483,-31.48044747916104,0.794
519,4.929129620068801,908,906.0788291042351,488,-30.390341832275944,0.795
513,5.000125426169434,908,906.0825399000291,492,-29.32474982674761,0.796
515,4.9990452055225365,908,906.0862482142434,496,-28.302428332600936,0.797
518,4.9965704220806195,908,906.0899540260989,498,-27.334748662644778,0.798
517,4.988062183368004,908,906.0936573148851,498,-26.42392277003532,0.799
510,5.193513887682553,907,906.0973580599612,497,-25.56252022378679,0.8
517,5.29511569989391,907,906.101056240756,494,-24.734355269642457,0.801
524,5.3904433769371085,907,906.1047518367685,489,-23.916635473851283,0.802
521,5.50678273412798,906,906.1084448275686,484,-23.08308567092884,0.803
514,5.421196781999941,907,906.1121351927976,480,-22.207617472922752,0.804
511,5.329439977104023,906,906.1158229121687,477,-21.268027674965115,0.805
512,5.411818724531271,906,906.119507965467,475,-20.249194238172816,0.806
504,5.438176767521614,907,906.1231903325495,477,-19.14530127775413,0.807
496,5.320137146280146,907,906.126869993346,481,-17.960758076078633,0.808
500,5.289626679075206,907,906.1305469278593,488,-16.709664320715106,0.809
507,5.204121183240215,907,906.1342211161657,496,-15.413887647528297,0.81
512,5.154616619352072,908,906.1378925384149,503,-14.100026253251475,0.811
513,5.227787755476306,908,906.1415611748305,509,-12.795694159209345,0.812
511,5.236742640531427,908,906.1452270057099,513,-11.525662505427468,0.813
515,5.311227229148032,908,906.1488900114256,515,-10.308403854142826,0.814
515,5.299111255388637,908,906.1525501724255,515,-9.15352040015413,0.815
515,5.3537726292905905,908,906.1562074692334,515,-8.060406532849523,0.816
518,5.473089781258906,907,906.1598618824493,514,-7.01832414255201,0.817
524,5.494412942077181,907,906.1635133927489,511,-6.007879783112759,0.818
520,5.486327746236903,907,906.1671619808844,506,-5.003707950397269,0.819
520,5.5632152314334125,906,906.1708076276855,501,-3.97800301963473,0.82
515,5.50757904335794,907,906.1744503140585,498,-2.9044223314620656,0.821
511,5.565305184642166,907,906.1780900209874,495,-1.761823049173019,0.822
506,5.522574786043818,907,906.1817267295341,495,-0.5373091089071234,0.823
498,5.573415652788941,907,906.185360420839,498,0.7718457641720038,0.824
503,5.752083820652746,907,906.18899107612,503,2.15767768251805,0.825
499,6.003912124307228,908,906.1926186766744,511,3.6024940264674004,0.826
504,6.121902814189393,908,906.1962432038785,518,5.0811821629749465,0.827
505,5.9379725454111965,908,906.1998646391879,524,6.56453739223225,0.828
511,5.769233808670092,908,906.2034829641386,530,8.023139662641302,0.829
516,5.7303320620302465,908,906.2070981603467,534,9.431237607097597,0.83
514,5.759061291687838,908,906.2107102095094,536,10.770105139110058,0.831
510,5.827828491631899,908,906.2143190934046,537,12.030414471697993,0.832
513,5.841919810608435,908,906.2179247938914,537,13.213306044644622,0.833
515,5.907908310558377,907,906.2215272929109,535,14.330011347604557,0.834
520,6.087938338712488,907,906.2251265724859,531,15.400077550740075,0.835
518,6.147286328698135,907,906.228722614722,526,16.44843146756206,0.836
517,6.181692884462248,907,906.2323154018078,521,17.50168260625614,0.837
517,6.247815968404992,907,906.235904916016,517,18.584178455772605,0.838
511,6.329568327533204,907,906.239491139702,515,19.714369929727848,0.839
504,6.418787141501718,907,906.243074055305,516,20.902009357624095,0.84
502,6.528162933850227,907,906.2466536453485,520,22.146588334379505,0.841
503,6.617083529925168,907,906.2502298924405,527,23.437242950779325,0.842
504,6.629096648126351,908,906.253802779273,534,24.75413702937697,0.843
505,6.593890153895958,908,906.2573722886227,541,26.071115835240608,0.844
507,6.6323500144976695,908,906.2609384033517,547,27.359239656964718,0.845
506,6.6295820221810375,908,906.2645011064081,552,28.590686778048074,0.846
512,6.56682650436192,908,906.268060380827,555,29.742473187783027,0.847
521,6.6193978992067715,908,906.2716162097303,556,30.799472741754762,0.848
525,6.640522560196942,908,906.2751685763263,556,31.756326486100914,0.849
525,6.623459025260967,907,906.2787174639105,555,32.61798605521856,0.85
522,6.653951745134482,907,906.282262855866,552,33.39882163575285,0.851
515,6.706087034340392,907,906.2858047356633,547,34.120417236575925,0.852
511,6.667979340452995,907,906.2893430868619,542,34.808353101660394,0.853
512,6.706013339395176,907,906.2928778931098,538,35.488415796701226,0.854
509,6.847807924794085,907,906.2964091381439,535,36.18276080975179,0.855
508,6.765900187600296,907,906.2999368057901,532,36.90656585438962,0.856
503,6.91048141926086,907,906.3034608799646,534,37.66565071306635,0.857
492,7.179490865410393,907,906.3069813446733,538,38.45540753259168,0.858
491,7.18109593159018,907,906.3104981840121,544,39.26120027613092,0.859
503,7.136114282321774,908,906.314011382167,551,40.06017988091659,0.86
514,7.015033416446557,908,906.3175209234151,557,40.824256381731686,0.861
515,6.931875693784019,908,906.3210267921246,562,41.52380461292815,0.862
516,6.972821403586848,908,906.3245289727544,566,42.13158114000743,0.863
518,6.929597002824333,908,906.3280274498552,569,42.626308428694934,0.864
521,7.011173606331257,908,906.3315222080705,568,42.995436680844605,0.865
518,7.170404124786187,908,906.335013232137,567,43.23671336218987,0.866
519,7.138650031584025,908,906.338500506884,564,43.358357364624375,0.867
521,7.05527062298174,907,906.3419840172337,560,43.377825962336615,0.868
522,6.967772843050054,907,906.3454637482023,555,43.319353119340214,0.869
519,6.888178992338992,907,906.3489396848994,549,43.210603845693896,0.87
511,6.822929554128349,906,906.3524118125291,544,43.07891118468295,0.871
508,6.721201837213832,906,906.3558801163912,540,42.94762372824141,0.872
504,6.745900623534552,907,906.35934458188,539,42.8330811461563,0.873
499,6.705162115195464,907,906.3628051944846,540,42.74265038339945,0.874
500,6.569869081537905,907,906.3662619397895,543,42.674104709725476,0.875
497,6.38659062757838,908,906.3697148034751,550,42.61643223959895,0.876
504,6.3916912398700925,908,906.3731637713179,556,42.55194933401462,0.877
518,6.606041399649601,908,906.3766088291911,560,42.45940117798528,0.878
518,6.756093770838239,908,906.380049963064,564,42.317588561715866,0.879
513,6.808174677309877,908,906.3834871590032,567,42.108988398879234,0.88
519,6.797621334347921,908,906.3869204031723,568,41.82284265974988,0.881
525,6.747841515397194,908,906.3903496818331,567,41.45726999271105,0.882
511,6.658945004898814,907,906.3937749813446,564,41.0200927170633,0.883
509,6.43151624699396,908,906.3971962881648,560,40.528250679572665,0.884
507,6.260663957127803,907,906.4006135888509,555,40.005869748747386,0.885
508,6.295504233720709,907,906.4040268700588,548,39.481240993141384,0.886
502,6.369489208875024,907,906.4074361185436,542,38.98312230865978,0.887
507,6.314254209815636,907,906.4108413211598,537,38.536876196180366,0.888
506,6.267907885226696,907,906.4142424648621,535,38.16098931224185,0.889
496,6.129645286553651,906,906.4176395367062,534,37.864473356892084,0.89
503,6.023186392746334,907,906.4210325238473,536,37.64552692170386,0.891
507,6.00425000871234,908,906.424421413541,540,37.49166074700356,0.892
508,5.876073941143792,908,906.4278061931445,547,37.38128016170796,0.893
513,5.697511993669901,908,906.4311868501168,553,37.28650897679664,0.894
512,5.5856275049056,908,906.434563372018,557,37.17686100337982,0.895
511,5.508799871631157,908,906.4379357465108,560,37.023247292357944,0.896
513,5.561570548882179,908,906.44130396136,562,36.80176666191893,0.897
519,5.540942147298879,908,906.4446680044329,562,36.49676584586269,0.898
518,5.487341807948735,908,906.4480278637001,561,36.10276225359561,0.899
516,5.37547944428885,907,906.4513835272354,558,35.62497887262369,0.9
522,5.232658136328875,907,906.4547349832158,554,35.07842703611256,0.901
526,5.013896901381211,907,906.4580822199221,547,34.48566724271974,0.902
519,4.963322966817507,907,906.46142522574,540,33.87355842581631,0.903
515,5.017626794190426,907,906.4647639891593,535,33.26944864074396,0.904
513,5.01408578681229,906,906.4680984987751,531,32.69734295901898,0.905
511,5.008503558275057,906,906.4714287432878,528,32.17459189805362,0.906
507,4.824409173721396,907,906.4747547115037,528,31.709572576911697,0.907
504,4.642323534308138,907,906.4780763923355,531,31.300694542734828,0.908
499,4.744368493644969,907,906.4813937748023,536,30.936872273226577,0.909
502,4.810618540269402,907,906.4847068480295,542,30.599393549418448,0.91
505,4.888218531337167,908,906.4880156012492,547,30.264909512023788,0.911
511,4.994865192160272,908,906.4913200238003,551,29.90911087627883,0.912
513,4.987083557851517,908,906.494620105129,553,29.510560473778757,0.913
512,5.052319936501751,908,906.4979158347893,555,29.054136465130018,0.914
515,5.040298159280423,908,906.5012072024438,554,28.53360059549244,0.915
518,4.904440735682519,907,906.5044941978636,552,27.952928994161894,0.916
512,5.016068033281418,907,906.507776810929,549,27.32621104527177,0.917
513,5.19097243202248,907,906.511055031629,544,26.676113791633547,0.918
516,5.3101743715061,907,906.5143288500608,537,26.031102709820228,0.919
516,5.389935700449319,906,906.5175982564315,531,25.421781683745582,0.92
514,5.380925809684664,907,906.5208632410577,525,24.876843307186043,0.921
513,5.449520559123037,906,906.5241237943654,521,24.419185395671956,0.922
507,5.46669755367878,906,906.5273799068913,519,24.06273755924108,0.923
505,5.378493405552538,907,906.5306315692827,521,23.810450629378177,0.924
508,5.2571212041045925,907,906.533878772298,524,23.653742111166135,0.925
508,5.413793104704429,907,906.5371215068061,531,23.573485075943687,0.926
508,5.489763888910377,908,906.5403597637877,536,23.54240758258319,0.927
501,5.354471174334956,908,906.5435935343347,541,23.528570007814395,0.928
504,5.265537405685463,908,906.5468228096508,545,23.49943977023417,0.929
509,5.229799467432214,908,906.550047581052,548,23.426006954569704,0.93
512,5.286878553651156,908,906.5532678399675,550,23.286386470727308,0.931
515,5.386368815979105,908,906.5564835779389,549,23.068427488774084,0.932
519,5.402632150135281,907,906.5596947866209,547,22.770986851519783,0.933
516,5.538335212848561,907,906.562901457781,543,22.403702822498968,0.934
519,5.594108966299086,907,906.5661035833011,538,21.98530699387393,0.935
519,5.489496405984601,907,906.5693011551776,531,21.540710376684043,0.936
520,5.4155541927442945,906,906.5724941655218,524,21.097269175801536,0.937
518,5.536370714311391,906,906.5756826065605,520,20.68075305610409,0.938
516,5.568598300275559,906,906.5788664706353,516,20.31158485635916,0.939
503,5.627702681876111,906,906.5820457502024,515,20.00188546056439,0.94
499,5.624989877521494,907,906.585220437834,518,19.753743402584984,0.941
499,5.641038689506213,908,906.5883905262177,522,19.558951435388195,0.942
503,5.782727287487397,908,906.5915560081572,528,19.400238094599615,0.943
506,5.836815851500261,907,906.5947168765724,534,19.253804626697377,0.944
512,5.801763596813758,908,906.5978731245,538,19.092791217183027,0.945
516,5.7354325529965315,908,906.601024745094,542,18.89116968387045,0.946
514,5.713670542511171,908,906.6041717316257,544,18.627509091065516,0.947
516,5.81276346513001,907,906.6073140774834,544,18.288088902885363,0.948
512,5.965184052563451,908,906.6104517761728,543,17.868932862388995,0.949
525,6.027379512166338,907,906.613584821318,540,17.37648969028332,0.95
526,6.04005162066028,907,906.6167132066607,536,16.826873244490372,0.951
520,6.038314520699999,907,906.6198369260609,529,16.243771895714517,0.952
515,5.9914816369028765,906,906.6229559734969,523,15.655320761428968,0.953
511,5.889407931871753,906,906.6260703430656,517,15.090377480408801,0.954
507,5.87842904041848,906,906.6291800289831,512,14.574730731606866,0.955
506,5.9862202368119215,907,906.632285025585,509,14.127785005592681,0.956
507,6.087700307420763,907,906.6353853273271,510,13.760199637668942,0.957
497,6.057489081045895,907,906.6384809287846,513,13.472821236193568,0.958
497,5.951064445740898,908,906.6415718246529,519,13.257055120523363,0.959
507,5.859558807158923,907,906.6446580097474,525,13.09660311159266,0.96
514,5.799260618765715,907,906.6477394790047,531,12.970288458450536,0.961
519,5.665092949502222,908,906.6508162274824,535,12.855528861421885,0.962
515,5.560534604817608,908,906.6538882503589,537,12.731930870700353,0.963
515,5.545257578700969,908,906.6569555429344,538,12.58447402405404,0.964
515,5.531148324854711,908,906.6600181006309,536,12.405826081866053,0.965
519,5.371438703901816,908,906.6630759189927,535,12.197464730718128,0.966
519,5.136299952195131,907,906.6661289936867,532,11.969452936954921,0.967
516,4.9079377004878975,907,906.6691773205027,528,11.738900772847858,0.968
514,4.963002557262702,907,906.6722208953535,522,11.527324806733226,0.969
513,5.066514667175908,906,906.6752597142741,516,11.357268681356002,0.97
509,5.208413416661087,906,906.6782937734234,511,11.24865761336907,0.971
505,5.2017605921137084,906,906.6813230690842,509,11.215408120940001,0.972
499,5.207510219308959,907,906.6843475976626,508,11.262790355855584,0.973
502,5.342605342049735,907,906.6873673556889,509,11.38594325120685,0.974
507,5.46008702538663,907,906.6903823398176,513,11.569784896695094,0.975
508,5.279695430902582,907,906.6933925468276,519,11.79036477267523,0.976
510,5.193225194524171,908,906.6963979736225,525,12.017498757008937,0.977
515,5.231777002620156,907,906.699398617231,531,12.218342457156476,0.978
519,5.2661927658364425,908,906.7023944748075,535,12.361422203466239,0.979
517,5.247928542705651,908,906.705385543632,537,12.420577273335946,0.98
517,5.155919094488162,908,906.7083718211097,538,12.378280152247523,0.981
513,5.1121601317121135,907,906.7113533047714,537,12.227888543377123,0.982
513,5.188112441196827,907,906.7143299922741,536,11.974527430794666,0.983
511,5.0531668989423695,907,906.7173018814019,531,11.634480571932475,0.984
515,4.925268819637572,907,906.7202689700662,526,11.23316619968805,0.985
512,4.897070517458459,906,906.7232312563051,519,10.801959308071917,0.986
509,4.894690448207903,906,906.7261887382841,514,10.374279692326018,0.987
504,4.7991095561562025,906,906.7291414142964,509,9.98146849109592,0.988
508,4.9658977420850015,906,906.7320892827632,505,9.64900917907418,0.989
511,5.1092874744317855,906,906.7350323422341,505,9.393604377992798,0.99
512,5.1116253129398315,907,906.7379705913862,508,9.221501202779843,0.991
510,4.9958197700116775,907,906.7409040290257,513,9.128279851644765,0.992
499,4.875506955722695,907,906.7438326540881,519,9.100108601574128,0.993
500,4.850703452791056,907,906.7467564656375,524,9.116257639678803,0.994
503,4.810802222042163,908,906.7496754628672,528,9.152489326072535,0.995
508,4.819444400938987,907,906.7525896450996,531,9.184829777525776,0.996
514,4.811601381686213,908,906.7554990117872,534,9.19318803594262,0.997
521,4.692128759788642,908,906.7584035625121,534,9.164323170116086,0.998
518,4.524917315651086,907,906.7613032969873,534,9.093756618475405,0.999
514,4.504585381858713,907,906.764198215056,531,8.986372778546334,1.0
522,4.594559149948199,907,906.7670883166913,527,8.855628000546623,1.001
520,4.681318558700528,907,906.769973601997,523,8.721476216193814,1.002
517,4.662503678533736,906,906.7728540712076,516,8.607295720250278,1.003
511,4.587098423110672,906,906.7757297246892,511,8.536243599144791,1.004
512,4.448135836152759,906,906.7786005629403,507,8.527552064580606,1.005
507,4.384599683333599,906,906.781466586591,504,8.593299541469822,1.006
503,4.4536338818746835,906,906.7843277964041,505,8.73613192044688,1.007
503,4.58473417537703,907,906.7871841932744,508,8.948280310693994,1.008
503,4.59715614233526,907,906.7900357782288,514,9.212037530120735,1.009
508,4.6072008297079865,907,906.7928825524269,520,9.50164368296456,1.01
509,4.639274561347637,907,906.7957245171611,526,9.786325387494967,1.011
514,4.71273868481715,908,906.7985616738571,531,10.03406725400194,1.012
523,4.7517703586982885,907,906.8013940240731,534,10.215593822102095,1.013
522,4.670740523465355,907,906.8042215695015,535,10.308018018770058,1.014
515,4.618422572405072,907,906.8070443119683,535,10.297667057974333,1.015
513,4.686560785896617,907,906.8098622534332,534,10.181715792060363,1.016
509,4.712416587681084,907,906.8126753959892,531,9.968420905820016,1.017
509,4.818778029413899,907,906.8154837418639,527,9.675934879801362,1.018
510,4.761113578548067,906,906.8182872934195,521,9.32986500957263,1.019
510,4.66428613054403,906,906.8210860531535,515,8.959909417959462,1.02
510,4.645062182153793,906,906.8238800236986,509,8.596028477194613,1.021
512,4.648110610869674,906,906.8266692078237,505,8.264677324978344,1.022
508,4.6424669716822535,906,906.8294536084331,504,7.985619358435978,1.023
503,4.477532692320188,906,906.8322332285666,506,7.769757776699531,1.024
503,4.505667116588964,907,906.8350080713994,509,7.618271972933864,1.025
504,4.578589128633744,907,906.8377781402432,515,7.523151011742102,1.026
512,4.47041823253143,907,906.8405434385459,521,7.469009764306908,1.027
512,4.3626760129668325,907,906.8433039698916,525,7.4358885068372755,1.028
511,4.355484927089435,907,906.8460597380017,528,7.4026028877562435,1.029
515,4.3696134105244155,907,906.8488107467347,531,7.350146510655331,1.03
520,4.412357278470805,907,906.8515570000864,531,7.264657503091758,1.031
521,4.393831055146361,907,906.85429850219,531,7.139535665356129,1.032
513,4.38828849176133,907,906.8570352573159,529,6.976423381797812,1.033
513,4.443850937248662,907,906.8597672698728,526,6.784923629125972,1.034
516,4.404489664927523,906,906.8624945444079,521,6.581102776426259,1.035
517,4.374196893781679,906,906.8652170856066,516,6.384994262203682,1.036
515,4.3404634596222325,906,906.8679348982918,510,6.2174612583477105,1.037
514,4.335023339788178,905,906.8706479874253,507,6.096872613072238,1.038
511,4.185164050834985,905,906.8733563581076,504,6.036081057625723,1.039
508,4.121373579401508,906,906.8760600155782,503,6.040158137790545,1.04
508,4.190779917226843,906,906.8787589652155,504,6.105239341950461,1.041
505,4.225744120161716,907,906.8814532125369,509,6.218677926466864,1.042
502,4.234310334975312,907,906.8841427631991,515,6.360517028917272,1.043
505,4.256054833520208,907,906.8868276229981,521,6.506093392279229,1.044
504,4.303021710742047,907,906.8895077978708,526,6.6294136529585606,1.045
508,4.276417230742816,907,906.8921832938939,529,6.706825248111961,1.046
508,4.295977622033378,907,906.8948541172857,532,6.720457823060234,1.047
513,4.298114890407035,907,906.8975202744052,532,6.6609419785660595,1.048
519,4.233638016135108,907,906.9001817717528,531,6.529011901450072,1.049
518,4.0945032076316314,907,906.9028386159696,528,6.335750566205871,1.05
516,4.007688518568438,907,906.9054908138376,524,6.101420042928623,1.051
515,3.9496022541585627,905,906.9081383722798,519,5.853011662078163,1.052
516,3.9454089028980097,905,906.9107812983609,512,5.620827380978693,1.053
512,3.953776372120692,906,906.9134195992863,507,5.434542094433829,1.054
509,4.027541754792857,905,906.9160532824023,503,5.31927721293235,1.055
508,4.157778879983824,906,906.918682355197,501,5.292224254014587,1.056
503,4.124522077188828,906,906.9213068253,502,5.360288363015822,1.057
500,4.006346938044927,906,906.923926700483,505,5.519082903338616,1.058
505,4.12898456632607,907,906.9265419886599,511,5.753416899229106,1.059
509,4.292046469437854,907,906.929152697887,517,6.039205480459451,1.06
511,4.412876525076763,907,906.931758836364,523,6.346532434698189,1.061
513,4.536770908165841,907,906.9343604124331,527,6.643435206952055,1.062
516,4.615762074408416,907,906.9369574345794,530,6.899889968601934,1.063
518,4.580273926752339,907,906.9395499114319,532,7.0914584395157085,1.064
519,4.752073575246066,907,906.9421378517629,532,7.202116035842204,1.065
514,4.967033252424792,907,906.9447212644898,531,7.225899802756396,1.066
514,5.1520635290501255,906,906.947300158674,528,7.167176625126238,1.067
515,5.266715269579634,906,906.9498745435218,524,7.039517371144906,1.068
515,5.37340735928044,906,906.9524444283844,518,6.863349621428279,1.069
511,5.448342537360438,905,906.9550098227579,511,6.662728371070177,1.07
509,5.355756908470026,905,906.957570736283,507,6.461688484291184,1.071
512,5.386525243821549,905,906.9601271787452,503,6.280704793785098,1.072
511,5.4886970571462586,905,906.9626791600755,502,6.133772322447905,1.073
510,5.690015667700398,906,906.9652266903491,504,6.026528738734612,1.074
507,5.765441963470395,906,906.9677697797866,508,5.955686059922091,1.075
507,5.883259014727379,907,906.9703084387535,513,5.909842517276976,1.076
511,6.022037067262259,907,906.9728426777612,519,5.871539517781737,1.077
510,6.095840915395871,907,906.9753725074671,524,5.820245704455348,1.078
507,6.258408835347168,907,906.9778979386748,527,5.7358184219872195,1.079
501,6.38852780949592,907,906.9804189823341,529,5.6019306048659265,1.08
504,6.3427829500962885,907,906.9829356495403,530,5.408963695587773,1.081
515,6.435051457495075,907,906.9854479515358,529,5.155947925095993,1.082
519,6.6877934109424935,907,906.9879558997092,528,4.851264968038353,1.083
521,6.880434108107599,906,906.9904595055956,524,4.511995919758583,1.084
522,7.053926559195495,906,906.9929587808771,519,4.161980346459125,1.085
523,7.204850175076874,906,906.9954537373825,513,3.8288298945063097,1.086
519,7.3611994669288014,906,906.9979443870876,506,3.540291353407681,1.087
512,7.3478127999489065,905,907.0004307421156,502,3.320457300654418,1.088
502,7.407323638526337,906,907.0029128147368,499,3.1863585802884242,1.089
497,7.403006655605338,906,907.0053906173695,499,3.1454312627755874,1.09
499,7.398141778826558,906,907.0078641625802,501,3.1942336209502837,1.091
499,7.416617823451076,907,907.0103334630836,507,3.3186119485108043,1.092
497,7.507933015936501,907,907.0127985317428,513,3.49530447374953,1.093
501,7.627990579494609,907,907.0152593815687,519,3.6947633521054404,1.094
509,7.756367880998997,907,907.0177160257213,524,3.8847999705365606,1.095
516,7.907481366225813,907,907.0201684775097,527,4.034546599914482,1.096
519,7.861182932584206,907,907.0226167503924,528,4.118192968343148,1.097
523,7.8608830620575425,907,907.0250608579763,529,4.1179996840803685,1.098
523,7.875929542330579,907,907.0275008140175,527,4.026199333625015,1.099
524,7.917649697384322,907,907.0299366324216,526,3.8455512112426793,1.1
523,7.993391021602268,906,907.0323683272431,521,3.588495817127662,1.101
519,8.176996663349778,906,907.0347959126857,516,3.2750400960069697,1.102
524,8.37284493452818,906,907.037219403102,509,2.9296739698108234,1.103
519,8.498503798853339,905,907.0396388129939,504,2.5777524439520696,1.104
511,8.453966044470164,905,907.0420541570124,500,2.2418551924927677,1.105
504,8.321517766145721,906,907.0444654499588,498,1.9386417646217486,1.106
490,8.336192689169952,906,907.0468727067841,499,1.6766506736382298,1.107
491,8.267168113491552,906,907.0492759425892,502,1.4553531129800907,1.108
496,8.253689058420335,906,907.0516751726254,507,1.2655872802430075,1.109
502,8.363708419811962,907,907.054070412295,512,1.0912959475990993,1.11
503,8.511958277653397,907,907.0564616771512,517,0.9122999461296146,1.111
510,8.481501815361181,907,907.0588489828974,521,0.707692747171664,1.112
519,8.43214826876635,907,907.0612323453879,524,0.4593570262914466,1.113
518,8.461639997817613,907,907.0636117806271,525,0.15509247680159094,1.114
519,8.407898347069702,907,907.0659873047707,524,-0.20909622970515637,1.115
515,8.318054969872602,906,907.0683589341256,522,-0.6278821917492234,1.116
519,8.300602034178805,907,907.07072668515,519,-1.0868375430850343,1.117
521,8.23001941468621,906,907.0730905744535,515,-1.563977341543611,1.118
522,7.988397588173808,906,907.0754506187977,508,-2.032428654077941,1.119
519,7.796706974390406,905,907.0778068350965,502,-2.4638692251185863,1.12
512,7.800396880056268,905,907.0801592404155,497,-2.8322651051965804,1.121
512,7.83359858491316,906,907.082507851972,493,-3.117383049634595,1.122
511,7.703803998241815,905,907.0848526871359,492,-3.3075741048565823,1.123
508,7.474359750348617,906,907.0871937634302,494,-3.40142138391154,1.124
504,7.245976609292891,906,907.0895310985302,499,-3.40800613588445,1.125
498,7.0561557348137525,907,907.091864710264,505,-3.345748169241812,1.126
502,6.912395923948552,907,907.0941946166117,510,-3.2399868196802863,1.127
504,6.953855043215474,907,907.0965208357065,515,-3.119651611076934,1.128
510,6.871266180966705,907,907.0988433858342,519,-3.013498398579303,1.129
508,6.8567170815591725,907,907.1011622854344,521,-2.9464407856548984,1.13
504,6.873513475859661,907,907.1034775530993,523,-2.936485132134039,1.131
512,6.7842642915957105,907,907.1057892075742,521,-2.9926877290148792,1.132
519,6.526956664408299,907,907.1080972677578,519,-3.1144086446003696,1.133
527,6.375028145022564,907,907.1104017527027,515,-3.291957328858165,1.134
530,6.3175344296560665,906,907.1127026816143,510,-3.5085330696291965,1.135
522,6.244749785361971,906,907.1150000738521,504,-3.743183131468554,1.136
517,6.126253191753976,906,907.1172939489288,498,-3.9743559372240584,1.137
514,6.114578083244167,906,907.1195843265114,494,-4.1835358317845905,1.138
505,5.974743899719247,905,907.1218712264204,491,-4.358424661455361,1.139
502,5.923780167390147,906,907.1241546686301,491,-4.495190455316126,1.14
500,6.0257087739610045,906,907.1264346732692,494,-4.599430648107993,1.141
503,6.091356626142918,907,907.1287112606201,499,-4.6856802844113234,1.142
509,6.034433190447714,907,907.1309844511193,505,-4.775507846289394,1.143
511,5.996776431475912,907,907.1332542653572,510,-4.894449522224797,1.144
513,5.799789495289035,907,907.135520724079,515,-5.068203485922242,1.145
518,5.848463255974323,907,907.1377838481844,518,-5.3186131068287095,1.146
512,6.007111992757927,907,907.1400436587278,519,-5.659998476672835,1.147
511,6.039611421651016,907,907.1423001769185,519,-6.096348814552265,1.148
510,6.081704937155764,907,907.1445534241207,518,-6.619774630917606,1.149
508,6.062620566844742,907,907.1468034218524,515,-7.2104557009293195,1.15
515,6.009874185542304,907,907.1490501917865,511,-7.8381298100259436,1.151
521,5.888664549107261,906,907.1512937557504,505,-8.464968975020744,1.152
519,5.782326699856703,906,907.1535341357271,497,-9.04950536916251,1.153
518,5.645873903214427,906,907.1557713538541,490,-9.551120398620538,1.154
511,5.728800646831048,905,907.1580054324245,486,-9.934519860767837,1.155
508,5.75180826941012,906,907.1602363938864,484,-10.173605182617719,1.156
502,5.67385180395388,906,907.1624642608435,485,-10.254224181339332,1.157
498,5.764901986944316,907,907.1646890560551,488,-10.175436998672842,1.158
498,5.754212298376788,907,907.1669108024362,495,-9.949140565806827,1.159
505,5.64692838088004,907,907.1691295230576,501,-9.598125279773264,1.16
508,5.513792401717706,908,907.171345241145,507,-9.152854472023188,1.161
510,5.486965241814783,907,907.1735579800802,512,-8.647427361465823,1.162
511,5.452803627273408,907,907.1757677634009,516,-8.115285309765786,1.163
515,5.412773981833376,908,907.1779746148013,518,-7.585238878989547,1.164
523,5.367435597870584,907,907.1801785581315,518,-7.0783322657653045,1.165
518,5.29443286434481,907,907.1823796173976,517,-6.605934752753029,1.166
515,5.330050345528151,907,907.1845778167623,515,-6.169275123407032,1.167
519,5.496150785425752,907,907.1867731805447,511,-5.760437663129255,1.168
511,5.63389950247865,906,907.18896573322,505,-5.364641289299298,1.169
501,5.677896468685913,906,907.1911554994196,499,-4.9634493401942335,1.17
503,5.669434927931198,906,907.1933425039316,495,-4.538428672651962,1.171
509,5.628459476955578,906,907.1955267717018,492,-4.074713200061969,1.172
508,5.742925176377854,906,907.1977083278326,492,-3.56394216508426,1.173
509,5.909667101868486,906,907.1998871975835,494,-3.006137916720616,1.174
506,5.962249967180492,907,907.2020634063707,499,-2.410248224535369,1.175
504,5.958420512208584,907,907.2042369797679,505,-1.7932795031208406,1.176
507,5.8864056190771175,907,907.206407943506,512,-1.178158306423933,1.177
512,5.7295718318062265,908,907.2085763234733,517,-0.590645886063706,1.178
518,5.617695434501539,908,907.2107421457159,521,-0.05576547757399674,1.179
516,5.517231826653264,908,907.2129054364374,524,0.40573448860685213,1.18
516,5.528270148352934,907,907.215066221998,526,0.7803710088150173,1.181
516,5.5348978522628665,907,907.2172245289149,525,1.0639431563965134,1.182
519,5.558912845391176,907,907.2193803838628,524,1.2622843858799773,1.183
521,5.45296854211413,907,907.2215338136745,520,1.3906341620505511,1.184
524,5.351342139022961,907,907.2236848453405,515,1.4717021223736908,1.185
520,5.31253118831509,907,907.2258335060088,510,1.532679850175051,1.186
516,5.2858704539664405,906,907.2279798229848,504,1.6016059933267643,1.187
511,5.387991962119909,906,907.2301238237307,499,1.7035884680605669,1.188
508,5.498350148833401,906,907.2322655358663,498,1.8574165261215037,1.189
505,5.487810857191974,906,907.2344049871696,498,2.0730475570692866,1.19
499,5.340545864065359,907,907.2365422055756,501,2.350332206140385,1.191
494,5.208851690142697,907,907.2386772191772,506,2.679163526372212,1.192
503,5.203192102292487,908,907.2408100562244,512,3.0410290962105946,1.193
508,5.1694669939708815,908,907.2429407451243,518,3.411741819201187,1.194
510,5.285324761019492,908,907.2450693144422,523,3.7649566679042095,1.195
515,5.161871028040841,908,907.2471957929008,527,4.075971711499244,1.196
519,5.06406643349663,908,907.2493202093808,529,4.325276702039195,1.197
519,5.099843281949651,908,907.2514425929205,529,4.501353454664055,1.198
515,5.15940512320168,908,907.2535629727165,528,4.6023403192067,1.199
507,5.196938453913684,907,907.2556813781241,526,4.63633092194746,1.2
513,5.213218995068787,908,907.2577978386569,522,4.620263029753319,1.201
512,5.193067081718507,907,907.2599123839871,517,4.577543866514067,1.202
515,5.165850410338053,907,907.2620250439452,510,4.534731671597816,1.203
512,5.3200353610716915,906,907.2641358485205,505,4.5177288474195665,1.204
513,5.210102271895566,906,907.2662448278609,502,4.54801982455988,1.205
507,5.266190127350236,907,907.2683520122725,499,4.63949141296805,1.206
502,5.2573989438659,907,907.2704574322199,501,4.796299730909207,1.207
503,5.2134402112833715,907,907.2725611183257,504,5.012103912190731,1.208
504,5.203341520582122,907,907.2746631013708,510,5.270792728058435,1.209
507,5.261259899243753,908,907.276763412294,516,5.548614754229134,1.21
510,5.1874866107219715,908,907.2788620821914,522,5.817419091405031,1.211
517,5.148647003851063,908,907.2809591423172,527,6.048553780775685,1.212
517,5.209842694080665,908,907.2830546240842,529,6.216876668222455,1.213
515,5.225340598481015,908,907.285148559063,532,6.304319753089305,1.214
516,5.249012584491209,908,907.2872409789824,532,6.302511010123486,1.215
511,5.262437265251035,908,907.2893319157296,531,6.2140851142088795,1.216
515,5.169480992858039,907,907.2914214013507,528,6.052488837832917,1.217
518,5.082911243819425,907,907.2935094680505,522,5.840288140399569,1.218
517,5.111229115240384,907,907.2955961481924,515,5.606189614556854,1.219
516,5.166663426297138,907,907.2976814742982,508,5.381173139576444,1.22
508,5.214410305301292,907,907.2997654790478,503,5.194267654584066,1.221
508,5.15397894396737,907,907.3018481952798,499,5.068563593124876,1.222
505,5.015377501026491,907,907.3039296559913,499,5.018029739042478,1.223
508,4.9137468968148355,908,907.3060098943378,501,5.045590119412582,1.224
505,4.909218142707507,908,907.3080889436336,506,5.142734251185931,1.225
506,5.001139606509387,908,907.3101668373514,513,5.290709902220612,1.226
508,5.21769972765767,908,907.312243609122,520,5.4631172744594485,1.227
504,5.373981705514635,908,907.3143192927346,524,5.629524450153573,1.228
512,5.491007128602796,908,907.3163939221372,527,5.759587517708005,1.229
520,5.488797444651541,908,907.3184675314355,530,5.827103078900983,1.23
515,5.475210206185199,908,907.3205401548944,531,5.813446924809004,1.231
515,5.554513972411232,908,907.3226118269376,530,5.709948641844442,1.232
518,5.617142409443251,908,907.324682582148,528,5.518900549471862,1.233
525,5.672413330701155,908,907.3267524552666,525,5.253082124727323,1.234
520,5.69466384552378,907,907.3288214811937,519,4.933877776320948,1.235
519,5.664879236293229,907,907.330889694988,512,4.588254663308124,1.236
519,5.746650040666084,907,907.3329571318668,506,4.245025581119699,1.237
511,5.735514924589628,907,907.335023827206,501,3.930927214868979,1.238
507,5.618964294891655,907,907.3370898165394,498,3.6670770144551836,1.239
505,5.741773117155337,908,907.3391551355585,498,3.4663226044366073,1.24
504,5.920713337177904,908,907.3412198201127,500,3.3318697609671677,1.241
499,6.09018757656911,908,907.3432839062099,505,3.2573858828848374,1.242
502,6.269346041197965,908,907.345347430016,513,3.2285532847895753,1.243
506,6.407487291301172,908,907.3474104278549,519,3.2258248173688893,1.244
508,6.426880923650119,908,907.3494729362084,524,3.227949424753538,1.245
510,6.519267346643212,909,907.3515349917158,527,3.215718410140994,1.246
512,6.699685536239551,908,907.3535966311748,529,3.1753522719238623,1.247
515,6.64691117870339,909,907.3556578915415,528,3.1010032870440796,1.248
515,6.6274418843210485,908,907.357718809929,527,2.995976281060248,1.249
519,6.728074353921766,908,907.359779423609,525,2.8724471352810195,1.25
524,6.769248181355049,908,907.3618397700117,520,2.749661192432113,1.251
521,6.704021055036876,908,907.3638998867251,515,2.6507984531630613,1.252
521,6.648645908948354,908,907.3659598114951,508,2.5988775666544686,1.253
513,6.541932368667032,907,907.3680195822255,502,2.6122148034844153,1.254
511,6.658862792433506,907,907.370079236978,498,2.7000367471796216,1.255
504,6.650741400486876,908,907.3721388139718,496,2.8588499541153025,1.256
499,6.667968306816044,908,907.3741983515836,498,3.0700907842327543,1.257
501,6.7920970572240265,908,907.3762578883473,502,3.2994215563397455,1.258
503,6.839943998259923,908,907.3783174629541,508,3.4978273810116085,1.259
509,6.605961177047918,908,907.3803771142536,514,3.604434753675466,1.26
506,6.455913737213666,908,907.3824368812532,518,3.5507554702827586,1.261
506,6.322313811272551,909,907.3844968031169,521,3.2658901219175798,1.262
511,6.250289452810736,909,907.3865569191655,525,2.6821247091429146,1.263
521,6.361337270783883,909,907.3886172688765,526,1.7403278265240094,1.264
525,6.36978091573297,909,907.3906778918848,525,0.3946000853520447,1.265
520,6.290119320337749,909,907.392738827983,523,-1.3842671346373632,1.266
524,6.294750584643359,908,907.3948001171201,518,-3.6068122971754937,1.267
524,6.183150842647397,908,907.3968617994027,511,-6.26450647611102,1.268
518,5.9871002009569825,908,907.398923915095,502,-9.330845070394519,1.269
502,5.8814474132428085,908,907.4009865046186,492,-12.763653456758972,1.27
499,5.8071779743948415,908,907.4030496085524,483,-16.508189179654128,1.271
509,5.7910971999548515,908,907.4051132676321,476,-20.500543340537504,1.272
506,5.9007638348622,908,907.4071775227502,472,-24.670841759948754,1.273
501,5.861339436266318,908,907.4092424149557,469,-28.945824326940837,1.274
503,5.90624549114293,908,907.4113079854542,468,-33.25052519686818,1.275
507,5.766863226912753,909,907.413374275608,471,-37.50896117452974,1.276
512,5.665648105387136,909,907.4154413269357,472,-41.643928711434604,1.277
513,5.727165199142718,909,907.4175091811126,472,-45.57617893861196,1.278
518,5.879887309263333,909,907.4195778799708,471,-49.223356846962005,1.279
517,6.04249634838442,909,907.4216474654995,470,-52.49913763967079,1.28
516,6.040667964548191,909,907.4237179798438,467,-55.31296819737951,1.281
501,6.017462882801764,909,907.4257894653047,463,-57.57073514211341,1.282
503,6.0339473721823715,909,907.4278619643392,461,-59.176550336644496,1.283
511,6.111341732929961,908,907.4299355195609,459,-60.035689146133876,1.284
511,6.209714631693494,908,907.4320101737391,455,-60.05855491059943,1.285
510,6.329397776262556,908,907.4340859697992,451,-59.16538976583724,1.286
515,6.307456589016717,908,907.4361629508231,448,-57.29131955954439,1.287
517,6.271095434094498,908,907.4382411600483,446,-54.391223136420244,1.288
517,6.347044871495096,908,907.440320640868,445,-50.443870059059805,1.289
508,6.158436480589666,908,907.4424014368307,447,-45.45478982271725,1.29
503,6.065456789643132,908,907.4444835916403,454,-39.45742656647591,1.291
504,6.131892839151167,909,907.4465671491567,464,-32.512293496381425,1.292
511,6.101703418707235,909,907.4486521533955,477,-24.70405651115614,1.293
511,6.004090518071106,909,907.4507386485272,492,-16.13672019606645,1.294
511,6.015887710372763,909,907.4528266788782,508,-6.927326360763321,1.295
512,5.948739809441984,909,907.4549162889296,524,2.8012297203933425,1.296
506,5.715698352501192,910,907.457007523318,540,12.92753582034257,1.297
513,5.69803295877255,909,907.4591004268352,553,23.338386861165564,1.298
517,5.683926055521893,909,907.461195044428,564,33.9341910370242,1.299
512,5.647791910428582,909,907.4632914211982,575,44.63250130522864,1.3
519,5.652263234350637,909,907.4653896024017,580,55.36933610218491,1.301
524,5.717519907537557,908,907.4674896334485,584,66.09821826159343,1.302
529,5.737826479380465,908,907.469591559903,587,76.7871378187815,1.303
521,5.920876190115571,908,907.4716954274844,591,87.41389593391727,1.304
513,6.045622523649715,908,907.4738012820661,595,97.9604774163376,1.305
505,5.92028795449063,908,907.4759091696754,601,108.40720058663226,1.306
499,5.999211386600929,908,907.4780191364933,611,118.72739241281278,1.307
497,5.983595364736541,909,907.4801312288549,623,128.88323652239,1.308
499,5.8924651524602325,909,907.482245493249,639,138.82325879407057,1.309
503,6.055768521812414,909,907.4843619763183,654,148.48168004861722,1.31
508,6.243587007325094,910,907.4864807248587,669,157.77961744600987,1.311
508,6.405848448165976,910,907.4886017858198,682,166.6278957937417,1.312
508,6.3976054487356215,910,907.4907252063053,692,174.93106796341425,1.313
512,6.360175245922761,910,907.4928510335731,701,182.59215496342162,1.314
521,6.3889404695279906,909,907.4949793150345,708,189.5175994038192,1.315
524,6.565913137465477,909,907.4971100982548,715,195.62196777044034,1.316
523,6.5745645459478395,909,907.4992434309515,720,200.8320192467475,1.317
520,6.6479312770430745,909,907.5013793609957,723,205.0898659436003,1.318
519,6.873138034932296,909,907.5035179364114,724,208.35506988591652,1.319
517,6.984800176539156,908,907.5056592053758,721,210.60564660741042,1.32
511,6.984803630284035,908,907.5078032162188,719,211.8380623487874,1.321
511,7.133693257139129,908,907.5099500174225,716,212.06640646606078,1.322
507,7.292629060937938,908,907.5120996576212,714,211.3209767095925,1.323
504,7.621836626630493,909,907.514252185602,713,209.64652211635985,1.324
503,7.813049275411475,909,907.5164076503034,713,207.10034687143417,1.325
505,7.98300990934982,910,907.5185661008156,714,203.7504007402896,1.326
510,7.978459053071185,910,907.5207275863797,713,199.6733881809511,1.327
499,7.889721575030703,910,907.5228921563878,711,194.9528432583465,1.328
499,7.5882077086860065,910,907.5250598603836,707,189.67706248600447,1.329
512,7.662015403889785,910,907.527230748063,701,183.93677516383434,1.33
520,7.8157105490359315,910,907.5294048692733,695,177.82246129762015,1.331
519,7.702241908638701,909,907.5315822740133,688,171.42129177088353,1.332
516,7.499662835875144,910,907.533763012432,680,164.8137506541548,1.333
520,7.3463364203936,909,907.5359471348291,671,158.07009236567308,1.334
522,7.222290964761645,909,907.5381346916546,660,151.2468759811247,1.335
519,7.309880145427065,909,907.5403257335078,648,144.38389486912618,1.336
515,7.54520719128401,908,907.542520311138,637,137.5018693586293,1.337
506,7.593885017004468,908,907.5447184754443,627,130.60127843093784,1.338
505,7.530016358397437,908,907.5469202774751,617,123.66266008116985,1.339
499,7.600675852084876,909,907.5491257684288,612,116.64860254509068,1.34
503,7.602012872273512,909,907.5513349996527,610,109.5074840878655,1.341
500,7.4926518548667005,909,907.5535480226431,609,102.17881349958158,1.342
500,7.2699734061967956,910,907.5557648890453,609,94.5998051358177,1.343
505,7.147457640304213,910,907.5579856506538,608,86.71262842912496,1.344
511,7.015449727257383,910,907.5602103594115,604,78.4716390382377,1.345
519,6.926666413472126,910,907.5624390674097,598,69.84985319670105,1.346
525,7.095754197194164,910,907.5646718268886,589,60.84397767444778,1.347
529,7.342047679614822,910,907.5669086902359,578,51.47744707943415,1.348
526,7.386717489625622,910,907.569149709988,566,41.801126395132094,1.349
520,7.276513184930559,910,907.5713949388293,552,31.891580894067257,1.35
518,7.11607861498342,910,907.5736444295923,537,21.84706835085534,1.351
519,7.048139733777492,909,907.5758982352573,520,11.781643306660879,1.352
513,7.150603165096927,908,907.5781564089522,503,1.8179569921872878,1.353
497,7.025059170181438,909,907.5804190039519,488,-7.920531351866626,1.354
503,6.829063923498088,908,907.5826860736786,476,-17.317163499153402,1.355
510,6.8302431887204325,909,907.5849576717007,467,-26.26878106749251,1.356
508,6.685884365273348,909,907.5872338517336,460,-34.69090906464946,1.357
504,6.564336455372906,909,907.5895146676392,455,-42.521014585125336,1.358
504,6.560796748842627,909,907.5918001734265,454,-49.71966824163658,1.359
498,6.534628462096253,910,907.5940904232505,454,-56.269682529686094,1.36
495,6.512616387502928,910,907.5963854714117,453,-62.173526056986525,1.361
505,6.421829808403169,910,907.598685372357,451,-67.44948712414075,1.362
510,6.44208337901847,910,907.6009901806782,450,-72.12716352469803,1.363
515,6.416619292907246,910,907.6032999511134,448,-76.24287933862533,1.364
520,6.376765397801845,910,907.605614738546,444,-79.8355786720684,1.365
518,6.353553715372286,910,907.6079345980055,440,-82.94363336828813,1.366
511,6.4144841616684785,910,907.6102595846663,435,-85.60284299815685,1.367
509,6.511942403558062,910,907.6125897538477,429,-87.84572027212643,1.368
510,6.474616993511168,909,907.6149251610127,421,-89.70196499978958,1.369
512,6.431558442520816,909,907.6172658617684,413,-91.1998569965176,1.37
520,6.456247400465697,909,907.6196119118663,407,-92.36816498980065,1.371
524,6.3604421918295655,909,907.6219633672022,403,-93.23809561126696,1.372
518,6.214207525786916,909,907.6243202838155,401,-93.84480915313706,1.373
513,6.099727768065371,909,907.6266827178889,403,-94.22810992709363,1.374
512,5.992931452046791,910,907.6290507257482,407,-94.43206696007775,1.375
508,5.979858240729979,910,907.6314243638614,413,-94.50351094131159,1.376
505,6.1336253377316625,910,907.6338036888388,418,-94.48955327722973,1.377
505,6.22231098051598,910,907.6361887574341,423,-94.43444829546084,1.378
509,6.337515477756443,910,907.6385796265423,427,-94.37624109582013,1.379
510,6.126176588463392,911,907.6409763532013,429,-94.34369398655848,1.38
513,6.069125754114805,910,907.6433789945906,430,-94.35395977872801,1.381
513,6.173738792164496,910,907.6457876080319,428,-94.41137733668711,1.382
516,6.294764628385894,910,907.6482022509883,426,-94.5076187545499,1.383
519,6.453864089842927,910,907.650622981065,422,-94.62323919482462,1.384
521,6.652781002493576,909,907.653049856008,417,-94.73049364224359,1.385
515,6.52547282602598,909,907.6554829337041,412,-94.79711331650054,1.386
508,6.215462546664733,909,907.6579222721801,407,-94.79059958125286,1.387
508,6.21135070517975,909,907.660367929603,403,-94.68251248617352,1.388
507,6.350722021863991,909,907.66281996428,400,-94.45221688014281,1.389
501,6.369253951780326,909,907.6652784346583,401,-94.08960643495627,1.39
500,6.303744718825673,910,907.6677433993249,404,-93.5964512682747,1.391
496,6.265523411223023,910,907.670214917006,409,-92.98619437141971,1.392
502,6.447415644610353,910,907.672693046567,416,-92.28223151275036,1.393
508,6.584531021235241,910,907.675177847012,423,-91.51491710212332,1.394
510,6.638251708817885,910,907.6776693774837,428,-90.71771199915446,1.395
515,6.663113181117694,910,907.6801676972632,432,-89.92300153942763,1.396
518,6.57795303716561,910,907.6826728657702,435,-89.1581475737947,1.397
524,6.404305236204745,910,907.6851849425622,436,-88.44229552561362,1.398
521,6.318420047431517,910,907.6877039873344,435,-87.78434694430575,1.399
520,6.30660551758047,910,907.6902300599196,434,-87.18234760362056,1.4
526,6.409210722167937,910,907.6927632202875,431,-86.62435203559566,1.401
524,6.759591904691278,910,907.6953035285447,425,-86.09062983291267,1.402
519,6.963846670334123,909,907.6978510449345,419,-85.55689927598904,1.403
508,6.89443235307629,909,907.7004058298369,415,-84.99813200737225,1.404
506,6.881519704262685,909,907.7029679437676,412,-84.39239024771634,1.405
505,7.034966635765559,910,907.7055374473782,411,-83.7241516935253,1.406
502,7.043188203210853,909,907.7081144014567,412,-82.98665079251313,1.407
496,7.0232104641999475,910,907.7106988669264,416,-82.18290841183658,1.408
494,6.970480413242914,910,907.7132909048458,423,-81.32531415125965,1.409
504,6.824040448451092,910,907.7158905764085,431,-80.43383878281963,1.41
511,6.6621984747899745,910,907.718497942942,436,-79.53315568843719,1.411
516,6.7285109078132415,910,907.7211130659092,441,-78.64910650895435,1.412
518,6.785127489155768,911,907.7237360069074,444,-77.80503256963213,1.413
515,6.731789811198934,910,907.7263668276681,447,-77.0185007716583,1.414
516,6.803135957991351,910,907.7290055900567,448,-76.29888659208551,1.415
515,6.684883673931952,910,907.7316523560712,446,-75.6461521117748,1.416
519,6.467362773148308,910,907.7343071878431,445,-75.05099096181806,1.417
519,6.309658472493143,910,907.7369701476373,440,-74.49632419113684,1.418
513,6.16380123379967,909,907.7396412978514,435,-73.95994334986207,1.419
512,6.273420256542706,910,907.7423207010157,430,-73.41793293840124,1.42
514,6.4803999754605925,909,907.7450084197927,425,-72.84838632638859,1.421
514,6.6162904114267365,909,907.7477045169768,422,-72.23487636828906,1.422
507,6.746617397250222,909,907.7504090554941,423,-71.56916615017714,1.423
511,6.777727195620173,910,907.7531220984016,425,-70.85274755618943,1.424
504,6.747269402438419,910,907.7558437088876,431,-70.09696333016969,1.425
489,6.630339854868905,910,907.7585739502708,438,-69.3216768558808,1.426
493,6.384069186196184,911,907.7613128860005,444,-68.55266910907892,1.427
507,6.258714682665719,910,907.7640605796562,449,-67.81812867863347,1.428
508,6.143913883806238,911,907.7668170949476,454,-67.14472935913716,1.429
501,6.121031760515706,911,907.7695824957134,457,-66.55384417110594,1.43
509,6.075844390159951,911,907.7723568459213,459,-66.05842213298918,1.431
509,6.04069484891481,910,907.7751402096677,457,-65.66096213085449,1.432
512,5.97196243819502,910,907.7779326511776,456,-65.35287077697906,1.433
511,5.780471753784471,910,907.7807342348045,454,-65.11530770585405,1.434
510,5.572078783742213,910,907.7835450250299,449,-64.92142550452154,1.435
518,5.479555173153774,909,907.7863650864629,442,-64.7397252338611,1.436
518,5.481556725703639,910,907.7891944838407,436,-64.53809291668456,1.437
512,5.414553317783127,909,907.7920332820272,432,-64.28797798052442,1.438
503,5.389942674246887,909,907.7948815460131,430,-63.96814125664935,1.439
507,5.294824491444266,910,907.7977393409155,431,-63.56744956532378,1.44
511,5.3239708467532045,910,907.8006067319772,433,-63.086322586496145,1.441
504,5.296130718342849,910,907.8034837845663,439,-62.53662652080711,1.442
510,5.23933405208101,911,907.8063705641772,446,-61.94002900216503,1.443
521,5.081245812921516,911,907.8092671364299,452,-61.325047753322345,1.444
525,5.117359984792835,911,907.8121735670685,459,-60.72320868606734,1.445
522,5.076845372423076,911,907.815089921962,462,-60.16484974572263,1.446
526,4.987233595867667,911,907.8180162671026,465,-59.6751477653579,1.447
526,4.958556451797432,910,907.8209526686067,465,-59.2709039773833,1.448
521,4.989516875537802,910,907.8238991927144,464,-58.95850990468069,1.449
515,5.036584339228749,910,907.8268559057894,462,-58.73334876402758,1.45
511,5.0596568937325594,910,907.8298228743187,458,-58.58069235373329,1.451
506,4.763231467647383,910,907.8328001649119,453,-58.477954121799975,1.452
511,4.4586062102381385,909,907.8357878443006,447,-58.3979785915385,1.453
511,4.438559215329368,909,907.8387859793382,441,-58.31290672861627,1.454
509,4.400783478197134,909,907.8417946369995,438,-58.198075344493745,1.455
509,4.261468528318088,909,907.8448138843805,436,-58.03540083646518,1.456
506,4.397110937746019,910,907.8478437886984,437,-57.815768807232466,1.457
508,4.5155057042406535,910,907.8508844172898,440,-57.5400938850019,1.458
505,4.6510546686713115,910,907.8539358376124,447,-57.218908388486646,1.459
511,4.961661516888593,911,907.8569981172445,454,-56.870555310458336,1.46
511,5.1446935568896865,911,907.8600713238835,459,-56.5182663310077,1.461
510,5.007512397067144,911,907.8631555253456,463,-56.18656541853324,1.462
505,4.949798466511178,911,907.8662507895662,467,-55.897527822558715,1.463
512,5.1014403344565435,911,907.8693571845989,468,-55.66743319823186,1.464
519,5.010311011059889,911,907.8724747786165,468,-55.50428548780229,1.465
515,5.094365056573434,910,907.8756036399093,467,-55.40654528001815,1.466
518,5.373374635508892,910,907.8787438368852,464,-55.36325130644517,1.467
510,5.497103846547553,910,907.8818954380688,460,-55.355517601603786,1.468
506,5.7446732260638855,910,907.885058512102,453,-55.35920370516273,1.469
511,5.783109088993144,909,907.888233127743,447,-55.34838936396723,1.47
511,5.638129452740311,909,907.8914193538661,443,-55.29916497770084,1.471
508,5.4819974499227415,909,907.8946172594623,440,-55.193194971999574,1.472
507,5.241900459174472,909,907.8978269136372,439,-55.020535815019805,1.473
507,5.07327896751143,909,907.9010483856122,441,-54.78129261713729,1.474
504,5.100143513506143,910,907.904281744723,446,-54.485863907519835,1.475
505,5.232568245161291,911,907.9075270604203,453,-54.153729117205955,1.476
509,5.393196131360384,911,907.9107844022683,459,-53.8109463923077,1.477
512,5.406266634570717,911,907.9140538399456,463,-53.48671509329061,1.478
511,5.411919264660054,911,907.9173354432442,467,-53.20948725612686,1.479
512,5.4350293066281035,911,907.9206292820692,470,-53.00316770243711,1.48
519,5.434541975208808,910,907.9239354264379,471,-52.88392140186519,1.481
517,5.417619187520702,911,907.9272539464797,470,-52.85801829259113,1.482
519,5.407356101203834,910,907.9305849124354,469,-52.92100455617942,1.483
526,5.534076861650741,910,907.9339283946571,465,-53.0583130009338,1.484
521,5.7111828160789075,910,907.937284463608,460,-53.24723417395028,1.485
510,5.845814097348607,910,907.9406531898615,453,-53.45998606907419,1.486
515,5.886731156798912,910,907.9440346441004,448,-53.66746639812262,1.487
518,5.885227197432492,910,907.9474288971185,443,-53.84316951343339,1.488
515,5.904910258675372,910,907.9508360198182,440,-53.96671830915946,1.489
501,6.145722293807363,910,907.9542560832114,440,-54.02650849513897,1.49
496,6.304181899509081,910,907.9576891584182,443,-54.02108482364908,1.491
496,6.5126519830414935,911,907.9611353166678,448,-53.95905013999972,1.492
496,6.6306560364461165,910,907.964594629297,454,-53.85752180031016,1.493
499,6.805144416734543,911,907.9680671677511,460,-53.73936225229747,1.494
506,6.945338984361329,911,907.9715530035819,465,-53.62958722754786,1.495
508,6.998971550943029,911,907.9750522084478,468,-53.55146907173244,1.496
510,7.188907998025928,911,907.9785648541138,471,-53.52288951149811,1.497
516,7.176752250640838,911,907.982091012451,470,-53.553454266379376,1.498
520,7.173858745378331,911,907.985630755437,469,-53.642771307398334,1.499
520,7.340533471065002,911,907.989184155154,467,-53.78013305230466,1.5
521,7.585125416533902,910,907.9927512837895,463,-53.94565260708797,1.501
518,7.949855573810622,910,907.9963322136365,457,-54.11270860527705,1.502
513,8.28046924684015,910,907.9999270170922,451,-54.251374364539494,1.503
508,8.405079428096801,910,908.0035357666568,445,-54.3323661227003,1.504
508,8.446341771005384,909,908.0071585349335,440,-54.3309624478708,1.505
508,8.421837747393692,910,908.0107953946283,439,-54.23033901779775,1.506
506,8.467683163856364,910,908.0144464185495,441,-54.023836920369,1.507
500,8.580792040289019,910,908.0181116796078,444,-53.71583174949572,1.508
496,8.628740381332264,910,908.0217912508155,451,-53.32107345563566,1.509
503,8.498973974037037,911,908.0254852052857,457,-52.86259036645618,1.51
509,8.410083819944653,911,908.029193616233,463,-52.368458612543776,1.511
514,8.558427889997768,911,908.0329165569724,468,-51.86789805221284,1.512
519,8.632447967950961,911,908.0366541009184,472,-51.387245141155304,1.513
524,8.501080442778095,911,908.040406321586,474,-50.94636228670505,1.514
527,8.486039397527964,911,908.0441732925897,473,-50.55597463512216,1.515
526,8.3945030348537,911,908.0479550876427,472,-50.21629130672632,1.516
524,8.197662760576701,910,908.0517517805566,469,-49.91708866529491,1.517
522,8.06102335742166,910,908.0555634452404,465,-49.63923295984467,1.518
524,7.903505721632583,910,908.0593901556996,459,-49.35742409194905,1.519
515,7.820582797672311,909,908.0632319860363,453,-49.04377473896255,1.52
502,7.761610406586008,909,908.0670890104491,449,-48.6717207324734,1.521
510,7.819101512228147,910,908.070961303232,446,-48.219707711293566,1.522
508,7.928481507286878,910,908.074848938775,446,-47.67412706915565,1.523
500,7.982722391915023,910,908.0787519915629,449,-47.03108073969609,1.524
493,7.950334709644529,910,908.0826705361754,454,-46.2967254840135,1.525
488,7.807734075204534,911,908.0866046472869,462,-45.48615754167667,1.526
494,7.6504323558530585,911,908.0905543996658,468,-44.62101456482198,1.527
504,7.568808612645727,911,908.0945198681748,473,-43.72615843332377,1.528
510,7.713907179714533,911,908.0985011277694,478,-42.82593027688554,1.529
512,7.752542049312017,911,908.1024982534987,481,-41.940521128182034,1.53
523,7.780299323597664,911,908.1065113205045,483,-41.08297632264644,1.531
524,7.750351911680507,911,908.1105404040204,483,-40.25725815332793,1.532
523,7.662311680130485,910,908.1145855793708,482,-39.45764434514885,1.533
521,7.486859565636157,910,908.1186469219712,479,-38.66955818032028,1.534
518,7.537291868968524,910,908.1227245073275,475,-37.8717308774016,1.535
519,7.9999673798213555,910,908.1268184110355,469,-37.03941094887506,1.536
520,8.489908489941572,909,908.1309287087809,464,-36.14818195238948,1.537
513,8.534921554171897,909,908.1350554763383,461,-35.17785151510449,1.538
509,8.420097732530715,910,908.1391987895711,459,-34.11584878637806,1.539
507,8.183822328873031,910,908.1433587244312,460,-32.959623380499046,1.54
507,7.899851239888316,910,908.147535356958,464,-31.717672197265554,1.541
504,7.8403705866037905,911,908.1517287632786,472,-30.409014040878038,1.542
505,7.945388457965303,911,908.155939019607,480,-29.061157773872207,1.543
504,8.014492479057724,911,908.160166202243,487,-27.706832124115753,1.544
510,8.049505205374432,911,908.1644103875724,493,-26.379926575372476,1.545
516,8.143821746898437,911,908.1686716520671,497,-25.111203233485107,1.546
518,8.144990603008988,911,908.1729500722836,500,-23.9243654029849,1.547
519,8.291754324361973,911,908.177245724863,502,-22.833012800864736,1.548
519,8.285926152687294,911,908.181558686531,502,-21.838889979023566,1.549
513,8.234750928490339,910,908.1858890340974,500,-20.931662488722147,1.55
509,8.107550469110835,910,908.190236844455,496,-20.09025497687407,1.551
514,7.723233239479388,910,908.1946021945788,491,-19.28557877002716,1.552
520,7.372025584092679,909,908.1989851615265,485,-18.484288069771733,1.553
516,7.3160173795408685,909,908.2033858224374,480,-17.653059282036505,1.554
515,7.459504422841806,909,908.207804254532,478,-16.762810112479677,1.555
513,7.733811595352325,910,908.2122405351117,477,-15.792278994418245,1.556
511,7.630665246561467,910,908.2166947415584,480,-14.730473912507897,1.557
509,7.410962653773839,910,908.2211669513334,484,-13.57766103951938,1.558
492,7.258128776847716,911,908.2256572419773,492,-12.344773677219077,1.559
480,7.192463135011919,911,908.2301656911089,499,-11.051348893386352,1.56
483,7.14401813505954,911,908.2346923764258,506,-9.72230837513593,1.561
507,7.033906318065336,911,908.2392373757029,512,-8.384059525808489,1.562
512,7.009035537605216,911,908.2438007667924,516,-7.06047977623919,1.563
511,7.115924511739948,911,908.248382627623,519,-5.769351790785642,1.564
512,7.164685301344867,910,908.2529830362001,519,-4.5197434317676795,1.565
522,7.181585815136815,910,908.2576020706057,519,-3.31068805609264,1.566
529,7.11620660553621,911,908.2622398089967,517,-2.131338722694924,1.567
524,6.977722187780439,910,908.2668963296056,513,-0.9625682215817865,1.568
526,6.916929009113509,910,908.2715717107396,508,0.2202101164096097,1.569
518,6.8452847790329345,910,908.2762660307801,504,1.4433946127957202,1.57
522,6.8880264580997315,909,908.280979368182,500,2.731232586615908,1.571
520,6.791703186358609,909,908.2857118014733,498,4.102104578019106,1.572
509,6.925783852222048,910,908.290463409255,499,5.565587694070962,1.573
501,6.902019038360901,910,908.2952342702005,503,7.120722850423077,1.574
500,6.83126035218822,910,908.3000244630542,509,8.755738601744559,1.575
506,6.850749378891625,911,908.3048340666318,517,10.449272593211754,1.576
512,6.887636855697393,911,908.3096631598196,525,12.172913845571085,1.577
506,6.938290236703484,911,908.3145118215743,531,13.894700459808726,1.578
503,6.773788672094473,911,908.3193801309226,536,15.583077481235147,1.579
497,6.702769642405085,911,908.3242681669599,540,17.210766030342597,1.58
507,6.654737459144429,911,908.3291760088497,542,18.75801995744906,1.581
513,6.717340756418378,911,908.3341037358233,543,20.21484034680212,1.582
515,6.752406337423382,910,908.3390514271788,542,21.581864278531295,1.583
518,6.781211713614293,910,908.3440191622815,540,22.86982250020261,1.584
515,6.653089775127765,910,908.3490070205637,537,24.097649869329057,1.585
514,6.144368885340497,910,908.3540150815236,532,25.28951095169118,1.586
518,5.614422253269613,910,908.3590434247246,528,26.471149995853477,1.587
519,5.596305425444038,909,908.3640921297955,524,27.66607041179586,1.588
517,5.594889218293461,910,908.3691612764281,523,28.892078094223073,1.589
517,5.6160913956517415,909,908.374250944379,524,30.158676466124057,1.59
513,5.593945247463145,910,908.3793612134681,529,31.46568085533352,1.591
512,5.427046318869179,911,908.3844921635791,535,32.803240918316106,1.592
515,5.229808933476196,911,908.3896438746578,543,34.15324971862084,1.593
515,5.117964641099729,910,908.3948164267117,550,35.491911635149336,1.594
515,5.085119304176965,911,908.4000098998094,556,36.793073321255164,1.595
511,5.1097495571588505,911,908.4052243740808,559,38.03181935763945,1.596
498,4.980258658088846,911,908.4104599297158,562,39.18781040496319,1.597
504,4.803081465450669,911,908.4157166469632,562,40.24789463152126,1.598
515,4.8304834749528665,911,908.4209946061317,562,41.20763853148023,1.599
514,4.747736480834114,910,908.4262938875888,561,42.07157989995564,1.6
507,4.694430581719832,910,908.4316145717601,559,42.85218164811273,1.601
505,4.870056564822634,910,908.4369567391284,554,43.5676405046528,1.602
510,4.97765689083855,910,908.4423204702338,548,44.23886205022134,1.603
512,4.929141490121863,909,908.4477058456727,544,44.88603555869927,1.604
513,4.876512760151643,909,908.4531129460978,541,45.52530990409352,1.605
506,4.762965177402335,910,908.4585418522173,540,46.16606903181193,1.606
508,4.892575463735628,910,908.463992644794,543,46.80922619787251,1.607
507,5.032545406639767,910,908.4694654046448,547,47.44680922913076,1.608
499,5.000133263236955,911,908.4749602126408,553,48.06291685199572,1.609
505,4.90773748879315,911,908.4804771497065,560,48.635919856056276,1.61
511,4.957034915011981,911,908.4860162968195,565,49.14159428197245,1.611
515,4.931643187690792,911,908.4915777350099,569,49.556736610583386,1.612
509,4.913152803293389,911,908.4971615453588,572,49.862742856731884,1.613
510,4.851755289727119,911,908.5027678089989,574,50.048641210022744,1.614
511,4.749821444582194,910,908.5083966071136,572,50.11314579900758,1.615
514,4.706581243510953,910,908.5140480209359,571,50.06543332539329,1.616
519,4.760862198333236,910,908.5197221317487,568,49.924515842609374,1.617
519,5.055223446746522,910,908.5254190208838,563,49.7172699924516,1.618
524,5.285757964260358,909,908.531138769721,557,49.47536316185241,1.619
520,5.397075326782862,910,908.5368814596885,551,49.23146919686206,1.62
515,5.4444813323296675,909,908.5426471722617,547,49.01527075318429,1.621
512,5.456899518839863,909,908.5484359889629,544,48.84978500365239,1.622
507,5.291787908557446,910,908.5542479913606,543,48.748514676546,1.623
506,5.348073126666553,910,908.5600832610698,545,48.71381942748794,1.624
502,5.36590941464174,910,908.5659418797505,549,48.73673729092507,1.625
498,5.396693378002864,910,908.5718239291078,555,48.798285436343626,1.626
506,5.556733548416906,911,908.5777294908904,561,48.87206288401704,1.627
514,5.635670076945451,911,908.5836586468896,566,48.927796895938435,1.628
519,5.840770246394204,911,908.5896114789405,569,48.93534774659886,1.629
520,5.9622422552939645,911,908.5955880689205,571,48.868631859670174,1.63
524,6.027132188462536,911,908.6015884987485,572,48.70894535941036,1.631
520,6.0057682788089455,911,908.607612850385,571,48.447260563548134,1.632
511,6.281026571023277,910,908.6136612058311,568,48.08521053156477,1.633
513,6.516575747979795,910,908.619733647129,565,47.63465191168423,1.634
518,6.592981507554302,910,908.6258302563605,560,47.11588307424955,1.635
512,6.6231429467569605,909,908.6319511156471,553,46.55477135610663,1.636
507,6.660897747601802,910,908.6380963071483,547,45.97918927689844,1.637
507,6.598585382359133,910,908.6442659130612,543,45.41525549266274,1.638
512,6.575681259061126,909,908.6504600156201,539,44.88390590562543,1.639
508,6.553754811764857,909,908.6566786970953,539,44.39827514885673,1.64
508,6.677931301805892,910,908.6629220397941,542,43.962251887193084,1.641
496,6.904497198104088,910,908.6691901260589,546,43.57039894098332,1.642
497,7.131973024364305,910,908.6754830382677,551,43.20922756673512,1.643
502,7.381857213625659,910,908.6818008588327,556,42.85961701431023,1.644
506,7.553629400080868,911,908.6881436702008,560,42.50000763763054,1.645
512,7.645586790034195,911,908.6945115548518,563,42.109892210699805,1.646
517,7.598579196946049,911,908.7009045952981,564,41.67309791113811,1.647
521,7.73856129254475,911,908.707322874085,563,41.18039132590875,1.648
517,7.976993974212051,910,908.7137664737896,562,40.631041377217365,1.649
516,8.325362707894811,910,908.7202354770202,559,40.03312320037904,1.65
524,8.57829030828717,910,908.726729966415,556,39.40251884174594,1.651
521,8.689872579248563,910,908.7332500246421,550,38.76074749313106,1.652
523,8.836661300762097,909,908.7397957343993,543,38.13192006476558,1.653
