EMG_raw,EMG_processed,EDA_raw,EDA_processed,ECG_raw,ECG_processed,time_sec
507,4.845531846100112,1020,1019.9951312786815,423,-40.70353231549918,0.0
505,5.111348325380849,1020,1019.9951231665999,419,-43.741541343489956,0.001
502,5.442935426319268,1020,1019.9951150412775,415,-46.68261517366581,0.002
497,5.8487161550577165,1020,1019.9951069027414,409,-49.42600354357114,0.003
495,6.219883032770737,1020,1019.9950987510191,403,-51.88402132284375,0.004
494,6.4047744468472105,1020,1019.9950905861382,398,-53.987344052080104,0.005
501,6.432913628407009,1020,1019.9950824081269,396,-55.688875455429006,0.006
508,6.528906506061019,1020,1019.9950742170134,395,-56.96587245699384,0.007
516,6.69623951177417,1020,1019.995066012826,397,-57.82015345754537,0.008
521,6.852301572057819,1020,1019.9950577955927,400,-58.276386526634106,0.009
529,6.899445272192466,1020,1019.9950495653424,405,-58.37863691838505,0.01
529,6.974341158056022,1020,1019.9950413221039,411,-58.18552486037869,0.011
524,7.22213738109043,1020,1019.9950330659075,415,-57.7644819514502,0.012
522,7.534703558813306,1020,1019.995024796783,419,-57.18567825830967,0.013
519,7.803724653943898,1020,1019.9950165147606,421,-56.516209969078545,0.014
514,8.01325094538244,1020,1019.9950082198701,421,-55.815087285087905,0.015
508,8.143502563041869,1020,1019.9949999121421,421,-55.12945301675976,0.016
507,8.149865203188169,1020,1019.9949915916071,419,-54.492311070647965,0.017
499,8.298946460569214,1020,1019.994983258296,418,-53.921871427566096,0.018
498,8.555427883414866,1020,1019.9949749122401,415,-53.4224446058101,0.019
497,8.964717202954334,1020,1019.9949665534704,411,-52.986660903913844,0.02
496,9.383587889732718,1020,1019.9949581820173,407,-52.598661276154196,0.021
500,9.673925276062064,1020,1019.9949497979118,404,-52.23781916544403,0.022
504,9.87486421522925,1020,1019.9949414011852,403,-51.88251666246108,0.023
518,9.966828180577258,1020,1019.994932991869,403,-51.5135206907712,0.024
525,10.029716122435786,1020,1019.9949245699939,405,-51.11658381002427,0.025
529,10.035411765892976,1020,1019.9949161355916,408,-50.68401801754894,0.026
532,10.099036249301419,1020,1019.9949076886932,412,-50.21513973715815,0.027
531,10.3172792019012,1020,1019.9948992293301,416,-49.71563829722158,0.028
521,10.532460446183123,1020,1019.9948907575339,420,-49.19605782944346,0.029
511,10.593910349760357,1020,1019.9948822733353,423,-48.669686721770944,0.03
507,10.560020039088672,1020,1019.9948737767658,427,-48.15020850138226,0.031
504,10.628531834873051,1020,1019.9948652678567,428,-47.6494787574855,0.032
504,10.724365377155666,1020,1019.9948567466398,429,-47.17575545682766,0.033
510,10.664745559179353,1020,1019.9948482131466,428,-46.732630419662264,0.034
508,10.640131239837842,1020,1019.994839667408,426,-46.31879819119083,0.035
500,10.765947214808612,1020,1019.9948311094553,423,-45.92867000171478,0.036
496,10.992561910641655,1020,1019.9948225393204,420,-45.5537127646995,0.037
499,11.14149656753249,1020,1019.9948139570355,416,-45.18428421837705,0.038
501,11.078049310529398,1020,1019.994805362633,415,-44.811661259758836,0.039
506,11.009177742037773,1020,1019.9947967561451,414,-44.4299304725458,0.04
511,11.193015872053538,1020,1019.9947881376041,414,-44.037431935858415,0.041
520,11.237204004732803,1020,1019.9947795070428,415,-43.63751534237916,0.042
524,11.249875705577725,1020,1019.9947708644935,417,-43.23847017283332,0.043
533,11.331917960868783,1020,1019.9947622099884,423,-42.85261483531045,0.044
532,11.425516407492927,1020,1019.9947535435603,426,-42.49465742994486,0.045
527,11.581331601541718,1020,1019.9947448652423,431,-42.179555101637845,0.046
521,11.88008456979745,1020,1019.9947361750677,433,-41.92018084869359,0.047
517,12.127940817732565,1020,1019.9947274730697,435,-41.72514159276952,0.048
514,12.314962739563299,1020,1019.994718759281,436,-41.597074075600794,0.049
514,12.366318864856293,1020,1019.9947100337343,435,-41.53168020602395,0.05
504,12.111255910272094,1020,1019.9947012964625,433,-41.51766183440416,0.051
494,12.01964904239659,1020,1019.9946925474986,431,-41.53759110025772,0.052
488,12.0943304782998,1020,1019.9946837868755,427,-41.56962293083614,0.053
494,12.22793735316723,1020,1019.9946750146258,423,-41.58983792309407,0.054
497,12.536426038271541,1020,1019.9946662307824,420,-41.574912476373484,0.055
499,12.9955375169859,1020,1019.9946574353779,418,-41.504761848315724,0.056
504,13.349390585907246,1020,1019.9946486284451,417,-41.364799621675466,0.057
514,13.36829779955331,1020,1019.9946398100168,417,-41.1475057772689,0.058
520,13.28153967266976,1020,1019.9946309801252,419,-40.853089076776676,0.059
536,13.392720443081274,1020,1019.9946221388026,424,-40.48915545582343,0.06
540,13.502309796002429,1020,1019.9946132860808,429,-40.069435899123285,0.061
532,13.459926428651775,1020,1019.9946044219918,433,-39.61176406352642,0.062
518,13.324493759537162,1020,1019.9945955465672,437,-39.135602902256004,0.063
516,13.368781439231299,1020,1019.9945866598395,439,-38.65948172257195,0.064
522,13.668393032859584,1020,1019.9945777618403,441,-38.1987114365586,0.065
517,13.878376996099966,1020,1019.9945688526021,441,-37.76369832980918,0.066
505,13.994199914743325,1020,1019.9945599321571,440,-37.35908537872543,0.067
495,13.940195900792075,1020,1019.9945510005376,438,-36.983829085013205,0.068
492,13.926402167893809,1020,1019.9945420577764,436,-36.632185262811774,0.069
489,13.790263941735194,1020,1019.9945331039065,432,-36.295446325598014,0.07
480,13.716547999572867,1020,1019.9945241389618,428,-35.964161637316344,0.071
487,13.740100109284137,1020,1019.9945151629753,424,-35.6304957960575,0.072
494,13.784522488234352,1020,1019.9945061759798,423,-35.29034972208618,0.073
503,13.829428121355155,1020,1019.9944971780081,423,-34.94489506546577,0.074
511,13.822877916044952,1020,1019.9944881690934,426,-34.601254992268764,0.075
523,13.967420143979,1020,1019.9944791492698,430,-34.27219371180322,0.076
536,14.011718836134648,1020,1019.9944701185717,435,-33.974832288733765,0.077
536,13.840357332698696,1020,1019.9944610770343,440,-33.72856258891338,0.078
537,13.610528241669506,1020,1019.994452024693,444,-33.552458194797595,0.079
535,13.515157955932423,1020,1019.9944429615829,446,-33.46256003528856,0.08
535,13.511132304537545,1020,1019.9944338877389,447,-33.46943399389071,0.081
520,13.432253595715787,1020,1019.9944248031965,447,-33.57635770882601,0.082
509,13.412959656734412,1020,1019.9944157079921,445,-33.77840400646559,0.083
503,13.414031927639853,1020,1019.9944066021625,443,-34.06256507704339,0.084
503,13.41057293937584,1020,1019.9943974857446,440,-34.40892289759627,0.085
501,13.211979202242171,1020,1019.9943883587752,437,-34.79273517495342,0.086
503,12.928210720894924,1020,1019.9943792212906,433,-35.18718757788324,0.087
496,12.788140327994387,1020,1019.9943700733273,429,-35.566474395288516,0.088
486,12.926253486921265,1020,1019.9943609149217,426,-35.90882017622943,0.089
495,13.00364830666914,1020,1019.9943517461096,423,-36.19905124437262,0.09
505,12.924933185405665,1020,1019.9943425669279,423,-36.43037212738153,0.091
517,12.81987707033143,1020,1019.9943333774139,425,-36.60509673052772,0.092
523,12.795180056705231,1020,1019.9943241776049,428,-36.734219064322886,0.093
526,12.541733154759127,1020,1019.9943149675386,434,-36.83586674853617,0.094
528,12.533902807946827,1020,1019.9943057472527,439,-36.93283868886634,0.095
528,12.520993230738522,1020,1019.9942965167851,442,-37.04955986387501,0.096
523,12.289949044209166,1020,1019.9942872761738,444,-37.20886797880705,0.097
519,12.037495292920552,1020,1019.9942780254572,445,-37.429065491404046,0.098
508,11.722259715101739,1020,1019.9942687646729,445,-37.72162635779287,0.099
503,11.642611083349479,1020,1019.9942594938592,443,-38.08985127086945,0.1
502,11.762122163127206,1020,1019.9942502130547,441,-38.528634890431434,0.101
502,11.71011796412346,1020,1019.9942409222975,437,-39.02536122571832,0.102
500,11.538150545594414,1020,1019.9942316216265,433,-39.56179639451933,0.103
498,11.322292505112936,1020,1019.9942223110796,429,-40.116718339813026,0.104
498,11.117141918537746,1020,1019.9942129906952,424,-40.66892594186141,0.105
502,10.778070083644483,1020,1019.9942036605115,420,-41.200217558295,0.106
506,10.357586855910357,1020,1019.9941943205662,419,-41.697929685350154,0.107
513,10.197605960138176,1020,1019.9941849708974,419,-42.156683453383344,0.108
521,10.157125583448387,1020,1019.9941756115435,422,-42.579095884140166,0.109
525,10.094807109448507,1020,1019.994166242543,425,-42.975360207038825,0.11
527,10.17740105386099,1020,1019.9941568639346,430,-43.361762272739064,0.111
524,10.25001232265048,1020,1019.9941474757569,434,-43.75835183051835,0.112
526,10.378568710162291,1020,1019.9941380780486,436,-44.186104029570934,0.113
519,10.385015190861902,1020,1019.994128670848,438,-44.663970608811525,0.114
519,10.100269593322277,1020,1019.9941192541936,438,-45.20622446107914,0.115
511,9.941607319247563,1020,1019.9941098281241,438,-45.82044897923422,0.116
507,9.822115320283215,1020,1019.9941003926782,435,-46.506426186563836,0.117
507,9.883179604029786,1020,1019.994090947895,432,-47.25605027936861,0.118
493,9.880196628694794,1020,1019.9940814938135,428,-48.05425260542482,0.119
489,9.960383173050259,1020,1019.9940720304734,423,-48.880788105366626,0.12
492,10.057907509163034,1020,1019.9940625579137,419,-49.71261949192889,0.121
499,10.134381342345923,1020,1019.994053076174,415,-50.52655902171066,0.122
510,10.154745346264079,1020,1019.994043585294,412,-51.30179916926349,0.123
515,10.205691043035594,1020,1019.994034085313,412,-52.021987499573,0.124
518,10.197519675514753,1020,1019.9940245762713,413,-52.676575215947906,0.125
520,10.09277655513002,1020,1019.9940150582091,416,-53.26128304664171,0.126
527,10.023874884273171,1020,1019.9940055311671,420,-53.77766443432579,0.127
525,10.125023080585446,1020,1019.9939959951856,423,-54.23188133145572,0.128
526,10.452336162495477,1020,1019.9939864503061,424,-54.63291907009408,0.129
518,10.678323577484102,1020,1019.9939768965704,425,-54.99053646079938,0.13
513,10.70313556092641,1020,1019.9939673340203,426,-55.31326880052709,0.131
512,10.752364683045716,1020,1019.9939577626973,427,-55.606779050808626,0.132
510,10.79650960503056,1020,1019.9939481826426,427,-55.87279591862948,0.133
506,10.786085247434956,1020,1019.9939385938977,427,-56.10879604025547,0.134
498,10.860296082551061,1020,1019.9939289965045,424,-56.308487511281,0.135
497,10.99105941978407,1020,1019.9939193905046,421,-56.46304042305215,0.136
496,11.181048934144,1020,1019.993909775941,416,-56.56289728074386,0.137
495,11.295367994429654,1020,1019.9939001528563,412,-56.59989740195219,0.138
500,11.238836269287795,1020,1019.9938905212933,409,-56.569382523187144,0.139
502,11.25837426093137,1020,1019.9938808812948,408,-56.47193162955638,0.14
511,11.174120457372041,1020,1019.9938712329039,408,-56.314409658010995,0.141
519,11.201349376162835,1020,1019.9938615761642,410,-56.1101045914929,0.142
523,11.132741838295466,1020,1019.9938519111196,414,-55.87785775515755,0.143
529,11.064126276225442,1020,1019.9938422378135,420,-55.64024314418022,0.144
533,10.860298320161773,1020,1019.9938325562902,424,-55.4209999028886,0.145
531,10.911026669724357,1020,1019.9938228665936,428,-55.2420431353073,0.146
524,11.14872623454943,1020,1019.993813168768,430,-55.12045110173536,0.147
521,11.501961610762354,1020,1019.993803462857,431,-55.06584007983188,0.148
513,11.938331633359285,1020,1019.9937937489043,431,-55.07849258203208,0.149
508,11.92479852970315,1020,1019.9937840269534,430,-55.14851093019341,0.15
505,12.011271110551176,1020,1019.9937742970477,429,-55.256142043150014,0.151
497,12.168596461343425,1020,1019.9937645592303,426,-55.373277130090685,0.152
483,12.317890347715299,1020,1019.9937548135439,423,-55.46598682240155,0.153
487,12.431543331071088,1020,1019.9937450600318,418,-55.49782164798326,0.154
496,12.482597162677028,1020,1019.9937352987375,413,-55.4335030300807,0.155
500,12.554578264190964,1020,1019.9937255297053,411,-55.2425652464727,0.156
503,12.686134260612086,1020,1019.9937157529797,408,-54.902497125890804,0.157
513,12.818305428910778,1020,1019.9937059686057,409,-54.40098151312945,0.158
524,12.7920711918274,1020,1019.9936961766288,412,-53.73693907573579,0.159
532,12.758721739941661,1020,1019.9936863770944,418,-52.92023866334935,0.16
536,12.627043183975491,1020,1019.993676570048,425,-51.970117611932295,0.161
530,12.532658305114122,1020,1019.9936667555356,431,-50.912533416801786,0.162
523,12.519366695358043,1020,1019.993656933604,435,-49.77681225950454,0.163
520,12.524903046478343,1020,1019.9936471043005,438,-48.59204544062696,0.164
515,12.54834926210473,1020,1019.9936372676719,441,-47.383701204469745,0.165
509,12.614830804731989,1020,1019.9936274237651,442,-46.1708712518362,0.166
511,12.6703207121904,1020,1019.9936175726269,443,-44.964472440076996,0.167
510,12.662628260728233,1020,1019.9936077143046,442,-43.76659122686124,0.168
504,12.60758054910412,1020,1019.9935978488451,440,-42.57100712908817,0.169
486,12.659635109688086,1020,1019.9935879762951,436,-41.36477767262224,0.17
481,12.486959733201692,1020,1019.9935780967015,433,-40.13062821853852,0.171
481,12.220754210857729,1020,1019.9935682101112,431,-38.84978410162825,0.172
489,12.047830300304314,1020,1019.993558316571,429,-37.50482648286757,0.173
507,11.965660310802477,1020,1019.9935484161277,430,-36.08215755508173,0.174
523,11.929849421724565,1020,1019.9935385088278,432,-34.573725956736844,0.175
528,12.02622439535238,1020,1019.993528594718,437,-32.97778063492248,0.176
535,12.086780919719683,1020,1019.9935186738456,444,-31.29857419653665,0.177
531,11.976701691809074,1020,1019.993508746258,451,-29.545101692169027,0.178
529,11.72264926104481,1020,1019.993498812002,457,-27.729110418538983,0.179
522,11.546735400137898,1020,1019.9934888711249,461,-25.862724452713998,0.18
520,11.49743883528903,1020,1019.9934789236739,465,-23.95607623588546,0.181
519,11.45746637198719,1020,1019.9934689696969,467,-22.015321929405072,0.182
512,11.351187206959647,1020,1019.993459009242,467,-20.041345474802057,0.183
508,11.512575592186646,1020,1019.9934490423578,468,-18.029344067098258,0.184
505,11.558368584720954,1020,1019.9934390690927,468,-15.96935397730186,0.185
502,11.478048184379002,1020,1019.9934290894947,467,-13.847639158169889,0.186
497,11.286261633658066,1020,1019.9934191036122,465,-11.648741914730886,0.187
495,11.00111628659843,1020,1019.9934091114932,463,-9.357897777764046,0.188
499,10.794486832318427,1020,1019.993399113186,463,-6.963456806334712,0.189
499,10.62200209861145,1020,1019.9933891087384,463,-4.458941329072562,0.19
514,10.58248364717052,1020,1019.9933790981976,467,-1.8444119940976351,0.191
519,10.679003723089593,1020,1019.9933690816109,471,0.8730920965295108,0.192
520,10.710533216216843,1020,1019.9933590590261,478,3.6801393186016065,0.193
532,10.701754553260528,1020,1019.993349030491,486,6.558463337138447,0.194
524,10.626499387723875,1020,1019.9933389960537,494,9.487288441107198,0.195
518,10.503094885719642,1020,1019.9933289557624,499,12.446096898655952,0.196
515,10.223050168184884,1020,1019.9933189096654,505,15.417441106690093,0.197
517,9.903643511389001,1020,1019.9933088578113,510,18.38939173177856,0.198
511,9.682021940069259,1020,1019.9932988002487,512,21.357260510292967,0.199
503,9.683070304561198,1020,1019.9932887370263,514,24.324333081986737,0.2
502,9.482721966242638,1020,1019.9932786681928,515,27.30147894509441,0.201
502,9.364547455032964,1020,1019.9932685937973,514,30.30565529753446,0.202
496,9.259295015834446,1020,1019.9932585138885,514,33.35747031344159,0.203
495,9.206116549618361,1020,1019.9932484285154,512,36.47810087317308,0.204
499,9.17453222087919,1020,1019.9932383377276,512,39.68595369918094,0.205
501,9.166592675597864,1020,1019.9932282415751,512,42.99350419602355,0.206
509,9.169105535436834,1020,1019.9932181401085,515,46.4047356624242,0.207
520,9.044865414444391,1020,1019.9932080333787,519,49.91353137161351,0.208
527,9.141290147889018,1020,1019.993197921437,526,53.50325036798376,0.209
527,9.264211492551729,1020,1019.9931878043348,535,57.1475607276363,0.21
527,9.307945659490034,1020,1019.9931776821235,543,60.81243483498636,0.211
515,9.411447139179584,1020,1019.9931675548545,550,64.45905704209807,0.212
513,9.516288794391997,1020,1019.9931574225792,556,68.04727980689657,0.213
511,9.440850032525768,1020,1019.9931472853494,561,71.5392056977749,0.214
513,9.347177169628539,1020,1019.993137143217,566,74.90247226622718,0.215
517,9.23187406441492,1020,1019.9931269962339,569,78.11286734363354,0.216
514,9.184536933382422,1020,1019.9931168444522,571,81.15599215367752,0.217
511,9.161114051672474,1020,1019.9931066879238,574,84.02780648799303,0.218
507,9.268498074885704,1020,1019.9930965267002,574,86.73402179759468,0.219
493,9.287063950659057,1020,1019.9930863608332,573,89.28844226574397,0.22
494,9.271325052395762,1020,1019.9930761903746,571,91.7104789176788,0.221
498,9.291199609321636,1020,1019.9930660153767,569,94.02216477024695,0.222
499,9.394417431168987,1020,1019.9930558358923,568,96.24506519279538,0.223
508,9.39364495643911,1020,1019.9930456519736,568,98.3974931790871,0.224
512,9.403602221058042,1020,1019.9930354636734,571,100.4923963594926,0.225
523,9.327483776394756,1020,1019.993025271045,575,102.53618335845995,0.226
529,9.316807809724462,1020,1019.9930150741419,583,104.5286142432092,0.227
529,9.38576829603383,1020,1019.9930048730183,590,106.46371549660951,0.228
527,9.327477518381519,1020,1019.9929946677283,596,108.33152264636325,0.229
522,9.202155250692263,1020,1019.9929844583265,600,110.12033219071148,0.23
520,9.095665951449066,1020,1019.9929742448679,604,111.81907966553064,0.231
513,9.014949599405595,1020,1019.9929640274075,607,113.41945942712678,0.232
507,9.021574401938052,1020,1019.9929538060004,607,114.91745763734866,0.233
502,8.940399985083268,1020,1019.992943580702,608,116.31406967937967,0.234
503,8.837830836358618,1020,1019.9929333515678,606,117.61510114565476,0.235
497,8.758411674581607,1020,1019.9929231186533,604,118.83009072176522,0.236
492,8.536373486487882,1020,1019.9929128820144,601,119.97052605841183,0.237
499,8.495748339482967,1020,1019.9929026417066,598,121.04763289056918,0.238
504,8.71096202507771,1020,1019.9928923977849,596,122.07008793364162,0.239
505,9.065065925436793,1020,1019.9928821503044,595,123.04202586373435,0.24
511,9.25521527450517,1020,1019.99287189932,596,123.96167446808195,0.241
518,9.138823668075958,1020,1019.9928616448868,600,124.82086245054134,0.242
526,9.214941003421574,1020,1019.9928513870599,604,125.60551309333181,0.243
533,9.300490435165639,1020,1019.9928411258942,611,126.29708424557383,0.244
524,9.462097795690317,1020,1019.9928308614448,615,126.87476690156338,0.245
519,9.621453090094423,1020,1019.9928205937666,619,127.31813735597997,0.246
521,9.707093835154428,1020,1019.9928103229148,620,127.60989189164157,0.247
517,9.701597180964761,1020,1019.9928000489443,621,127.73828698070668,0.248
510,9.628620976857354,1020,1019.9927897719111,620,127.69895782478923,0.249
507,9.601881609778806,1020,1019.9927794918711,619,127.49587985403736,0.25
503,9.614407955346831,1020,1019.9927692088808,617,127.14135401170813,0.251
499,9.55873179375728,1020,1019.9927589229968,615,126.65502078507058,0.252
499,9.597944883351905,1020,1019.9927486342766,611,126.0620265720127,0.253
502,9.636969678966317,1020,1019.9927383427779,607,125.39056850861587,0.254
504,9.662425318492357,1020,1019.9927280485584,603,124.66912101662254,0.255
506,9.714715201068268,1020,1019.992717751676,600,123.92368975776685,0.256
508,9.786575386534338,1020,1019.9927074521883,598,123.17543826309769,0.257
517,9.932401689911227,1020,1019.992697150153,598,122.43898561031355,0.258
521,9.891224192478099,1020,1019.992686845629,600,121.72158386437378,0.259
524,9.790142825544315,1020,1019.9926765386748,602,121.02326322779466,0.26
515,9.77082348369933,1020,1019.9926662293495,605,120.33789902368149,0.261
508,9.731992360966851,1020,1019.9926559177119,607,119.65502861704549,0.262
523,9.613065122117302,1020,1019.9926456038214,610,118.96214687690969,0.263
529,9.634059440404366,1020,1019.9926352877386,611,118.24714857839267,0.264
522,9.857901080161405,1020,1019.9926249695244,612,117.50057128414377,0.265
511,10.017141592249024,1020,1019.9926146492397,612,116.71732298891949,0.266
505,10.124991605997753,1020,1019.9926043269455,611,115.89765060209051,0.267
506,10.027749676707636,1020,1019.9925940027032,608,115.0472097086108,0.268
499,9.8960669747263,1020,1019.9925836765741,604,114.17622150259973,0.269
484,9.719717171242154,1020,1019.9925733486192,599,113.29783496085034,0.27
490,9.825561204054278,1020,1019.992563018899,593,112.42593387102016,0.271
497,10.04813306917351,1020,1019.9925526874739,589,111.57272037476979,0.272
503,10.153408637348063,1020,1019.9925423544045,585,110.74645216441948,0.273
508,10.192808451826455,1020,1019.9925320197516,585,109.94969824230634,0.274
510,10.17464413979413,1020,1019.9925216835762,585,109.178406635649,0.275
519,10.081357405937192,1020,1019.9925113459398,588,108.42195631220889,0.276
531,10.032546377876423,1020,1019.9925010069036,592,107.66421418116228,0.277
530,10.063510689957772,1020,1019.9924906665291,596,106.88546163716997,0.278
528,10.191916127945625,1020,1019.9924803248772,599,106.06491973209118,0.279
524,10.368438253340234,1020,1019.9924699820093,600,105.1835101192987,0.28
523,10.45436022685077,1020,1019.9924596379873,601,104.22645429690233,0.281
520,10.475565070857739,1020,1019.9924492928739,600,103.1853386825116,0.282
514,10.500034798530924,1020,1019.9924389467318,599,102.0593495754177,0.283
507,10.415266038225088,1020,1019.9924285996243,596,100.85549623898912,0.284
503,10.31053287246863,1020,1019.9924182516141,592,99.58777679692467,0.285
499,10.42574413683488,1020,1019.9924079027641,587,98.2753849238569,0.286
497,10.758594984394367,1020,1019.9923975531364,581,96.9401894049046,0.287
498,11.022426554735683,1020,1019.9923872027933,575,95.603826781721,0.288
492,11.050806275457305,1020,1019.9923768517982,571,94.28481329828456,0.289
497,10.872281042140573,1020,1019.9923665002142,567,92.9960933031358,0.29
505,10.694898044891922,1020,1019.9923561481049,567,91.74339098677883,0.291
513,10.765499922635101,1020,1019.9923457955341,568,90.52462419631274,0.292
519,10.728727089535226,1020,1019.9923354425658,571,89.33048675058924,0.293
524,10.756754704475037,1020,1019.9923250892642,576,88.14613163232184,0.294
529,10.664729878343243,1020,1019.9923147356934,580,86.9537193861603,0.295
530,10.428960542945681,1020,1019.9923043819175,583,85.73546212750041,0.296
526,10.339855643425786,1020,1019.9922940280002,584,84.47671681181984,0.297
519,10.36222475973593,1020,1019.9922836740055,583,83.1686745088785,0.298
511,10.414064483361829,1020,1019.9922733199977,581,81.81025442051016,0.299
512,10.436539739578276,1020,1019.9922629660408,577,80.40892869615114,0.3
505,10.487528606501481,1020,1019.992252612199,573,78.98035531878088,0.301
498,10.58341614278275,1020,1019.9922422585367,569,77.5468578229641,0.302
492,10.51375785525695,1020,1019.9922319051187,564,76.13494090169881,0.303
494,10.347219716542508,1020,1019.9922215520099,560,74.77215348104677,0.304
499,10.219064560774825,1020,1019.9922111992759,554,73.4836945975248,0.305
506,10.110116306086036,1020,1019.992200846982,550,72.28919556978684,0.306
506,9.94270677443497,1020,1019.9921904951942,546,71.20009977803426,0.307
511,9.771954718355712,1020,1019.9921801439785,547,70.2179959390445,0.308
515,9.744041839709553,1020,1019.9921697934009,550,69.3341439238996,0.309
531,9.69580371258682,1020,1019.9921594435272,553,68.53027529739538,0.31
531,9.644852976134539,1020,1019.9921490944233,558,67.7805768962556,0.311
528,9.617035946396681,1020,1019.9921387461553,560,67.05460476912468,0.312
524,9.667808437929112,1020,1019.9921283987895,563,66.32075470459174,0.313
521,9.760165609128894,1020,1019.9921180523919,564,65.54985091188274,0.314
513,9.672619784972023,1020,1019.9921077070279,564,64.71841047706238,0.315
507,9.484988715457751,1020,1019.992097362763,563,63.81119264103143,0.316
507,9.47355439370459,1020,1019.9920870196628,562,62.82273748173052,0.317
505,9.601771228594282,1020,1019.9920766777931,560,61.757724225558626,0.318
504,9.66574685085352,1020,1019.9920663372199,556,60.63012099255351,0.319
496,9.715986461002013,1020,1019.992055998009,551,59.461242407022354,0.32
495,9.65684822426591,1020,1019.9920456602275,544,58.27696640714174,0.321
496,9.551315701482162,1020,1019.9920353239421,539,57.10447158981547,0.322
501,9.407490519640213,1020,1019.9920249892197,535,55.96892410227993,0.323
507,9.408549242389315,1020,1019.9920146561266,532,54.890553454593615,0.324
516,9.478741413811102,1020,1019.9920043247292,531,53.88250337937113,0.325
524,9.508097957981793,1020,1019.9919939950945,534,52.949732288406935,0.326
528,9.444131631696496,1020,1019.9919836672888,538,52.08908347533882,0.327
522,9.306361800670436,1020,1019.9919733413793,543,51.29047151652418,0.328
522,9.207315835664087,1020,1019.991963017433,546,50.5389675377235,0.329
519,9.122643317269503,1020,1019.9919526955167,548,49.817441272356135,0.33
515,9.185579683966049,1020,1019.9919423756972,549,49.10935244130691,0.331
512,9.377246968823156,1020,1019.991932058041,549,48.401283691269995,0.332
510,9.577949902056332,1020,1019.9919217426144,548,47.684864725612485,0.333
510,9.65031272430404,1020,1019.9919114294838,546,46.95783776249273,0.334
506,9.796543141414865,1020,1019.9919011187161,543,46.22414160125385,0.335
501,9.898997689288151,1020,1019.9918908103781,540,45.49302921367026,0.336
495,9.996256664564209,1020,1019.9918805045371,535,44.77736643556012,0.337
494,10.090044480276186,1020,1019.9918702012604,530,44.09137249351276,0.338
497,9.98080493655648,1020,1019.9918599006163,526,43.44814330864998,0.339
507,9.798961058066277,1020,1019.9918496026734,523,42.857333701148555,0.34
517,9.816991970653218,1020,1019.9918393075008,523,42.32335621994907,0.341
520,9.883295753504466,1020,1019.9918290151676,524,41.84438132451214,0.342
523,10.026614993242813,1020,1019.9918187257425,526,41.41230540510231,0.343
527,10.16051305256852,1020,1019.9918084392942,530,41.0137081871371,0.344
527,10.274778051575435,1020,1019.9917981558918,534,40.631672533750645,0.345
525,10.17316089492879,1020,1019.9917878756045,537,40.24821028905478,0.346
520,9.921840204492296,1020,1019.9917775985008,539,39.846946639674265,0.347
519,9.74155008988072,1020,1019.9917673246495,541,39.415675111304374,0.348
516,9.6077866148042,1020,1019.9917570541191,542,38.948409646684475,0.349
510,9.586154519038432,1020,1019.991746786979,541,38.44662498138623,0.35
510,9.539866669683192,1020,1019.9917365232976,539,37.91948252617865,0.351
504,9.40488757255118,1020,1019.9917262631437,536,37.38297398791333,0.352
499,9.336687701104674,1020,1019.991716006586,531,36.85806360923889,0.353
497,9.426577357264975,1020,1019.991705753693,526,36.36805379367442,0.354
498,9.435169626534897,1020,1019.991695504534,519,35.93551835118402,0.355
495,9.430817891471012,1020,1019.9916852591781,516,35.57922357735188,0.356
498,9.515538724736798,1020,1019.9916750176943,515,35.311473775211034,0.357
506,9.657084048211981,1020,1019.9916647801518,516,35.13626629265468,0.358
524,9.758200915714024,1020,1019.9916545466198,519,35.0485266432098,0.359
535,9.731521113091514,1020,1019.9916443171677,523,35.03453615512175,0.36
537,9.89337086865677,1020,1019.9916340918656,528,35.07349093208328,0.361
532,10.023193859212807,1020,1019.9916238707837,532,35.13997053818796,0.362
519,10.04624979624262,1020,1019.9916136539922,535,35.20697175123394,0.363
511,10.014814222058984,1020,1019.9916034415613,538,35.24909301387712,0.364
508,9.97720107036101,1020,1019.991593233561,539,35.24544523719999,0.365
504,10.106847887165369,1020,1019.9915830300614,539,35.18191164542891,0.366
499,10.012450464712904,1020,1019.9915728311324,537,35.05247404686167,0.367
499,9.979849890178908,1020,1019.9915626368437,536,34.85945151770012,0.368
497,9.962804859839885,1020,1019.9915524472648,532,34.612643259208696,0.369
502,10.04623498838556,1020,1019.9915422624657,527,34.3275126328625,0.37
506,10.072137895044351,1020,1019.9915320825165,523,34.022677184745056,0.371
506,10.091486802098352,1020,1019.9915219074873,519,33.71706383722916,0.372
506,10.179385148535552,1020,1019.9915117374479,516,33.427135019337896,0.373
509,10.195256728997926,1020,1019.9915015724686,515,33.16458113362882,0.374
512,10.203645145680348,1020,1019.9914914126192,515,32.93480665997718,0.375
518,10.190149839566248,1020,1019.9914812579703,519,32.73641940569045,0.376
523,10.263096460277614,1020,1019.9914711085929,524,32.56178072924659,0.377
527,10.350547799550212,1020,1019.9914609645583,529,32.39851182462659,0.378
521,10.40678486440654,1020,1019.9914508259388,532,32.23170498814181,0.379
519,10.493580431391715,1020,1019.9914406928068,535,32.04648551255073,0.38
518,10.514999107321767,1020,1019.9914305652345,536,31.830526285402275,0.381
519,10.439555630298525,1020,1019.9914204432938,536,31.576136318328945,0.382
517,10.327744114182568,1020,1019.991410327057,535,31.281617796797903,0.383
511,10.228757704079607,1020,1019.9914002165973,533,30.951699008222146,0.384
497,10.152807056735824,1020,1019.9913901119884,530,30.596985498095222,0.385
494,9.996059694384714,1020,1019.9913800133044,526,30.23251161925703,0.386
493,9.872214235590164,1020,1019.9913699206198,521,29.875602688875002,0.387
495,9.81967032944387,1020,1019.9913598340098,518,29.543358667852164,0.388
498,9.968726830290493,1020,1019.9913497535503,515,29.250129716931735,0.389
500,10.20492204597897,1020,1019.9913396793175,511,29.005362297486208,0.39
510,10.294936482529263,1020,1019.9913296113881,512,28.812148347181456,0.391
518,10.181935215851974,1020,1019.9913195498387,514,28.666712944127372,0.392
521,10.142245626864785,1020,1019.9913094947464,519,28.558937829224497,0.393
531,10.128384474011831,1020,1019.9912994461878,525,28.47385757470668,0.394
527,10.170798116243278,1020,1019.9912894042394,529,28.393909055582093,0.395
526,10.35706452884175,1020,1019.9912793689776,533,28.301593081226358,0.396
523,10.580322888713683,1020,1019.9912693404784,534,28.18214298757192,0.397
520,10.767265991001631,1020,1019.9912593188182,534,28.025798617457824,0.398
515,10.89056224580682,1020,1019.9912493040728,532,27.82935058155368,0.399
511,10.848143186758652,1020,1019.9912392963187,530,27.596732847995906,0.4
505,10.965391100331159,1020,1019.9912292956318,528,27.33857968198786,0.401
500,11.1163749416774,1020,1019.9912193020881,527,27.07080402020686,0.402
495,11.214860919816852,1020,1019.9912093157631,523,26.81238191151436,0.403
493,11.224130120767684,1020,1019.9911993367322,517,26.58263184854701,0.404
496,11.304838259400814,1020,1019.9911893650709,513,26.39835192911451,0.405
499,11.391514863556967,1020,1019.9911794008548,511,26.27121249738896,0.406
503,11.355558749311383,1020,1019.9911694441593,510,26.20578543501108,0.407
511,11.218773840696727,1020,1019.9911594950603,511,26.19851733236874,0.408
520,11.088519132207884,1020,1019.9911495536338,514,26.237828667045306,0.409
527,11.149099257296081,1020,1019.9911396199562,519,26.30536262787998,0.41
531,11.076832187212819,1020,1019.991129694104,525,26.37823920020142,0.411
529,11.02055361288491,1020,1019.9911197761538,529,26.43201864285483,0.412
527,11.045352887816609,1020,1019.9911098661827,532,26.443968552850798,0.413
523,11.11046580458806,1020,1019.9910999642678,535,26.396178821330647,0.414
519,11.174459743995934,1020,1019.9910900704871,535,26.27808575227945,0.415
509,11.138515187765778,1020,1019.9910801849181,534,26.088045268661368,0.416
502,11.144149205156095,1020,1019.9910703076388,531,25.833722062797627,0.417
499,11.18348586474215,1020,1019.9910604387268,528,25.53121836267191,0.418
496,11.274361308510944,1020,1019.9910505782594,525,25.203031249311167,0.419
492,11.278433108722753,1020,1019.991040726314,520,24.87507988106875,0.42
496,11.305317417559257,1020,1019.991030882968,515,24.573166053541943,0.421
496,11.313940279286918,1020,1019.9910210482984,512,24.31931034938541,0.422
501,11.197953334372153,1020,1019.9910112223832,509,24.12843200702046,0.423
511,11.109427639349521,1020,1019.9910014053002,508,24.005807598290303,0.424
519,11.093017274659294,1020,1019.9909915971269,510,23.945652518021067,0.425
525,11.101373944422177,1020,1019.9909817979413,512,23.931029710538063,0.426
529,11.055183802548276,1020,1019.9909720078211,518,23.935119395853274,0.427
527,11.046148686210723,1020,1019.990962226845,523,23.923705036561135,0.428
526,10.934736012442547,1020,1019.9909524550916,527,23.858570580448077,0.429
523,10.750241451508803,1020,1019.9909426926391,531,23.701386838374965,0.43
517,10.712223549008554,1020,1019.9909329395658,532,23.417608435676613,0.431
512,10.712750668619655,1020,1019.9909231959504,532,22.979913550174963,0.432
511,10.668334583469708,1020,1019.9909134618714,531,22.370791267128844,0.433
508,10.677620387527623,1020,1019.9909037374081,529,21.58400165654322,0.434
501,10.586868445480006,1020,1019.9908940226395,525,20.624782970682414,0.435
497,10.500325604119821,1020,1019.9908843176444,520,19.50883951877138,0.436
492,10.372105081973634,1020,1019.9908746225009,514,18.26029476968072,0.437
492,10.18588087905458,1020,1019.9908649372877,508,16.908919522970674,0.438
495,10.097869747531796,1020,1019.9908552620835,504,15.487027658040315,0.439
502,10.033929427701139,1020,1019.990845596967,501,14.026458620133623,0.44
510,10.00433974239168,1020,1019.9908359420168,501,12.556030908780953,0.441
520,10.093494970741025,1020,1019.9908262973116,501,11.099759815787767,0.442
526,9.995638923495815,1020,1019.9908166629297,502,9.67600138849347,0.443
531,9.770111681210572,1020,1019.9908070389487,506,8.297535138564633,0.444
529,9.584730237880478,1020,1019.990797425446,509,6.972453324030773,0.445
526,9.478578922654656,1020,1019.9907878224989,512,5.705605630964206,0.446
518,9.574858968167893,1020,1019.9907782301851,512,4.500272743179087,0.447
515,9.747234922871822,1020,1019.9907686485825,511,3.359722776828424,0.448
515,9.963795482616641,1020,1019.9907590777692,510,2.288342407826877,0.449
510,10.226729163049454,1020,1019.990749517823,508,1.292119213383411,0.45
508,10.111273547544146,1020,1019.9907399688208,506,0.3783656042554743,0.451
500,10.056916383646593,1020,1019.9907304308402,502,-0.4452999503054891,0.452
501,10.02332525908925,1020,1019.9907209039596,498,-1.1725762270219267,0.453
502,10.006791452312134,1020,1019.9907113882576,493,-1.800461673193631,0.454
498,9.974751575933114,1020,1019.9907018838129,488,-2.331271419998003,0.455
499,9.996743397335582,1020,1019.9906923907037,485,-2.774326590669609,0.456
505,10.064892358171,1020,1019.9906829090081,484,-3.14696809927704,0.457
512,10.166991801242393,1020,1019.990673438805,485,-3.47461830808443,0.458
515,10.191875796421991,1020,1019.9906639801733,488,-3.7897359996916467,0.459
523,10.147928516962446,1020,1019.9906545331922,493,-4.129666220944885,0.46
524,10.084794976146807,1020,1019.990645097941,497,-4.533551616037039,0.461
520,10.017884870499588,1020,1019.990635674499,500,-5.038618125457479,0.462
522,9.878822238162371,1020,1019.9906262629464,503,-5.676251152985642,0.463
520,9.768939717924505,1020,1019.9906168633637,504,-6.468323389907694,0.464
517,9.593600931904833,1020,1019.9906074758313,504,-7.42421870092896,0.465
517,9.40919480896839,1020,1019.9905981004302,503,-8.538923344893009,0.466
516,9.525080036294087,1020,1019.9905887372414,499,-9.79243764194488,0.467
511,9.53663316012156,1020,1019.9905793863462,496,-11.15061306783865,0.468
505,9.308889100484498,1020,1019.9905700478256,491,-12.567359366923908,0.469
497,9.137784194963205,1020,1019.990560721761,486,-13.988012318986058,0.47
491,9.071404182561157,1020,1019.9905514082333,480,-15.353522569755826,0.471
487,8.955126959511409,1020,1019.9905421073234,476,-16.605033731987696,0.472
490,8.879708194620266,1020,1019.9905328191129,472,-17.688374673429102,0.473
497,8.997745966735234,1020,1019.9905235436835,469,-18.558003129830897,0.474
513,8.96463912136234,1020,1019.990514281117,470,-19.180006086753306,0.475
522,8.975873946735602,1020,1019.990505031495,473,-19.53388030430525,0.476
527,8.972184035913896,1020,1019.9904957948987,476,-19.612969991969777,0.477
526,8.930406790231018,1020,1019.9904865714101,481,-19.42360662000161,0.478
524,8.985469348046527,1020,1019.990477361111,485,-18.98315264639808,0.479
524,9.00847000025528,1020,1019.9904681640827,489,-18.317273491461567,0.48
520,8.925022292715852,1020,1019.9904589804067,493,-17.456835061492495,0.481
517,8.810046506885522,1020,1019.9904498101645,495,-16.43484090343458,0.482
512,8.830564252906496,1020,1019.9904406534373,497,-15.283784510285907,0.483
510,8.825789717683852,1020,1019.9904315103066,497,-14.033705220010075,0.484
504,8.900053827483152,1020,1019.9904223808543,495,-12.711112307412648,0.485
500,8.936572252369904,1020,1019.9904132651617,492,-11.338797291279697,0.486
499,9.10604439812079,1020,1019.9904041633102,488,-9.936409030282896,0.487
497,9.30352154865493,1020,1019.9903950753809,485,-8.521542399267336,0.488
504,9.290094187965165,1020,1019.9903860014541,485,-7.1110111143854535,0.489
512,9.147263074471798,1020,1019.9903769416109,485,-5.721954197738931,0.49
518,9.073583039472053,1020,1019.9903678959316,487,-4.372467531150003,0.491
520,9.029009198523946,1020,1019.9903588644964,490,-3.081547913899694,0.492
515,8.997599000455489,1020,1019.9903498473853,495,-1.8682691134907328,0.493
522,8.990431576454851,1020,1019.9903408446784,502,-0.7502562050981357,0.494
526,9.017896910536514,1020,1019.9903318564556,508,0.25833646630504176,0.495
520,9.047463693989092,1020,1019.9903228827969,511,1.1490301741647797,0.496
509,9.030499951190956,1020,1019.9903139237825,514,1.9210389521780897,0.497
502,8.921194739034162,1020,1019.990304979492,515,2.5827332070259374,0.498
510,8.80041602641414,1020,1019.9902960500048,515,3.152247736583278,0.499
510,8.7302439477644,1020,1019.9902871354001,513,3.6570407950104147,0.5
508,8.713534671282003,1020,1019.990278235757,513,4.132346062342254,0.501
503,8.70673994032593,1020,1019.9902693511543,510,4.618602498898316,0.502
498,8.811061571166869,1020,1019.9902604816701,507,5.158081637953266,0.503
502,8.94911575625165,1020,1019.9902516273827,503,5.791044558445626,0.504
502,9.01322117150177,1020,1019.9902427883707,499,6.5518400013063545,0.505
506,8.957255185510968,1020,1019.9902339647127,498,7.465389091141868,0.506
504,8.860354355871834,1020,1019.9902251564866,497,8.544480484337598,0.507
513,8.770693981269396,1020,1019.9902163637702,501,9.78821831325997,0.508
519,8.797525628410614,1020,1019.9902075866411,506,11.181830434343524,0.509
526,8.921344418887012,1020,1019.9901988251776,512,12.697874157237456,0.51
533,9.040513849628478,1020,1019.9901900794574,519,14.298697557435318,0.511
531,9.119692313351774,1020,1019.9901813495584,524,15.939856146940345,0.512
522,9.259035358390772,1020,1019.9901726355578,529,17.574071916241888,0.513
514,9.335440130252431,1020,1019.9901639375324,532,19.155269223792295,0.514
514,9.473624870763876,1020,1019.9901552555583,534,20.642232657981843,0.515
516,9.602252114937555,1020,1019.9901465897118,536,22.0014989311868,0.516
515,9.60676494726651,1020,1019.9901379400698,536,23.209205041776602,0.517
512,9.689083734986633,1020,1019.990129306709,534,24.251753106367456,0.518
504,10.017372415892755,1020,1019.990120689706,531,25.12530304562459,0.519
497,10.276689871631032,1020,1019.9901120891371,528,25.83425155248146,0.52
492,10.288582416707614,1020,1019.9901035050788,524,26.38898165097454,0.521
494,10.285249669835448,1020,1019.9900949376068,521,26.803254179789302,0.522
496,10.31103117033115,1020,1019.9900863867973,519,27.091647466425734,0.523
502,10.205573367627338,1020,1019.9900778527261,519,27.267427907825702,0.524
512,10.2516944026788,1020,1019.9900693354692,521,27.34115373368908,0.525
523,10.273684043692906,1020,1019.990060835103,525,27.32018734858309,0.526
532,10.405358342085588,1020,1019.9900523517039,530,27.209137550861822,0.527
534,10.563048705890585,1020,1019.9900438853482,534,27.011097210679136,0.528
527,10.640876175182223,1020,1019.9900354361124,536,26.729411638559995,0.529
522,10.693504525719428,1020,1019.9900270040729,539,26.36962949971174,0.53
515,10.817597463764972,1020,1019.9900185893065,540,25.94126235125446,0.531
513,10.966205846539303,1020,1019.9900101918901,539,25.45900970097921,0.532
508,10.974974262408224,1020,1019.9900018119,538,24.943185212058424,0.533
504,11.006706582452967,1020,1019.9899934494123,536,24.419193515815994,0.534
498,11.055739939672602,1020,1019.9899851045028,534,23.916040647125723,0.535
496,11.167869599849231,1020,1019.9899767772471,530,23.463998404181634,0.536
492,11.117026070872356,1020,1019.9899684677201,524,23.09166970691931,0.537
493,11.086249071089696,1020,1019.9899601759975,519,22.822805148499658,0.538
497,11.136935854242157,1020,1019.9899519021541,516,22.67328583672281,0.539
504,11.282467672193347,1020,1019.9899436462655,514,22.648699273292006,0.54
518,11.414923973886111,1020,1019.9899354084067,515,22.742884191703947,0.541
524,11.377182980348994,1020,1019.9899271886528,518,22.937709772019,0.542
531,11.336516732220137,1020,1019.9899189870788,521,23.204199925180543,0.543
535,11.392860297673888,1020,1019.9899108037602,527,23.504938200865443,0.544
526,11.439808320727419,1020,1019.9899026387728,532,23.797519932062418,0.545
520,11.479718239539844,1020,1019.9898944921923,536,24.03868026403407,0.546
515,11.48851366719059,1020,1019.9898863640941,539,24.18863937732329,0.547
516,11.387125001364955,1020,1019.9898782545537,540,24.2151811493281,0.548
515,11.258653166280686,1020,1019.9898701636465,539,24.097019876706536,0.549
509,11.155261814585067,1020,1019.9898620914481,537,23.826102081801547,0.55
501,11.141173082346171,1020,1019.989854038034,536,23.408619664308738,0.551
495,11.006104055183622,1020,1019.98984600348,533,22.864656356823076,0.552
494,10.870818879902949,1020,1019.9898379878617,530,22.226533165277456,0.553
499,10.735746503079213,1020,1019.9898299912546,525,21.53604683028175,0.554
496,10.661483667440917,1020,1019.9898220137346,520,20.840898582126123,0.555
498,10.644315943451693,1020,1019.9898140553772,518,20.190678942829745,0.556
504,10.713457630225486,1020,1019.9898061162575,515,19.63279818563802,0.557
510,10.812304567949727,1020,1019.9897981964499,515,19.208725407433036,0.558
522,10.781642634729208,1020,1019.9897902960291,518,18.95082456024286,0.559
531,10.635410952906492,1020,1019.9897824150693,522,18.879965063825907,0.56
531,10.455183248809488,1020,1019.9897745536445,527,19.003957275880445,0.561
529,10.346211581022272,1020,1019.9897667118283,531,19.316743775684692,0.562
525,10.280668752492993,1020,1019.9897588896941,534,19.79819085107742,0.563
521,10.27523079264376,1020,1019.9897510873151,535,20.414288321853554,0.564
521,10.346003529272167,1020,1019.9897433047639,534,21.11758506449997,0.565
514,10.481945391985107,1020,1019.9897355421134,532,21.847754416785932,0.566
511,10.493479876548605,1020,1019.9897277994363,529,22.53227981697051,0.567
509,10.23864195103854,1020,1019.9897200768049,529,23.087353046574748,0.568
502,10.128447262148196,1020,1019.9897123742911,526,23.41916302550205,0.569
495,10.077043748547416,1020,1019.9897046919667,522,23.4258071896015,0.57
492,10.164031861880611,1020,1019.9896970299036,517,23.000073301174993,0.571
499,10.257918173800267,1020,1019.9896893881736,514,22.03331357332614,0.572
503,10.340762047819284,1020,1019.9896817668481,511,20.42056017421037,0.573
507,10.381120484937213,1020,1019.989674165999,511,18.066907537892146,0.574
512,10.319320574691172,1020,1019.989666585698,512,14.895016780317205,0.575
516,10.292201579578615,1020,1019.9896590260167,514,10.853397515294496,0.576
526,10.2580743978446,1020,1019.9896514870264,518,5.924919619653433,0.577
527,10.145033553060413,1020,1019.9896439687981,519,0.13483487326626062,0.578
524,10.053204002193718,1020,1019.9896364714022,519,-6.4425212004350865,0.579
521,10.076193139616912,1020,1019.9896289949087,514,-13.679197003693929,0.58
519,9.94395190312109,1020,1019.9896215393873,508,-21.392028754490585,0.581
518,9.885540402933888,1020,1019.989614104907,501,-29.344565031542682,0.582
512,9.869988403579129,1020,1019.989606691537,491,-37.252833766686045,0.583
512,9.86879512623457,1020,1019.9895992993469,480,-44.79495709756221,0.584
507,9.789869160130776,1020,1019.9895919284062,467,-51.624277180352586,0.585
502,9.66499229266721,1020,1019.989584578784,452,-57.38531578724432,0.586
495,9.61255792022242,1020,1019.9895772505496,439,-61.731582600490626,0.587
494,9.54517411185699,1020,1019.9895699437719,427,-64.34400451336188,0.588
493,9.51892126220535,1020,1019.9895626585202,416,-64.94860296739976,0.589
498,9.569881180176504,1020,1019.9895553948635,409,-63.33202415681417,0.59
503,9.568610855464927,1020,1019.9895481528714,411,-59.35364374266068,0.591
512,9.559247941488756,1020,1019.9895409326135,421,-52.953227260388545,0.592
525,9.657028218672362,1020,1019.9895337341599,438,-44.1535156499164,0.593
533,9.78548211332167,1020,1019.9895265575805,458,-33.05758388510377,0.594
530,9.821067834686493,1020,1019.9895194029458,483,-19.841329123773363,0.595
525,9.82780476126413,1020,1019.9895122703259,512,-4.741915209589285,0.596
519,9.822178482041997,1020,1019.9895051597913,540,11.956626886482047,0.597
518,9.906714229195975,1020,1019.9894980714124,567,29.939212215456738,0.598
512,10.000815919912577,1020,1019.9894910052598,591,48.87543658515079,0.599
510,10.022621645193967,1020,1019.9894839614038,608,68.43385624912891,0.6
503,10.267532557027865,1020,1019.9894769399156,624,88.29371145140989,0.601
500,10.729286286038652,1020,1019.9894699408659,636,108.15338734228243,0.602
499,11.071573261076546,1020,1019.9894629643248,644,127.73536096128345,0.603
497,11.277832516360432,1020,1019.989456010362,652,146.78783427327397,0.604
503,11.375925302430558,1020,1019.9894490790465,660,165.08364084128746,0.605
500,11.427120542553821,1020,1019.9894421704474,671,182.41728929542754,0.606
505,11.320276631215041,1020,1019.9894352846335,681,198.60113912205946,0.607
513,11.374329071727262,1020,1019.9894284216733,696,213.46168440810064,0.608
518,11.881737026148645,1020,1019.9894215816352,715,226.8367624897402,0.609
524,12.477024994279061,1020,1019.9894147645872,736,238.57423925540445,0.61
528,12.750235784051299,1020,1019.9894079705972,754,248.53239907870966,0.611
525,12.75474614857509,1020,1019.9894011997334,770,256.58194374514005,0.612
523,12.627322148340928,1020,1019.9893944520635,781,262.60923842570173,0.613
523,12.45680338615242,1020,1019.9893877276544,788,266.5202733417993,0.614
520,12.16660847756658,1020,1019.9893810265729,792,268.2447510994327,0.615
513,12.003029992963839,1020,1019.9893743488855,790,267.73975317435617,0.616
505,11.88963569340867,1020,1019.9893676946575,782,264.992562432158,0.617
502,11.986433605545958,1020,1019.9893610639541,771,260.022392423812,0.618
499,11.82150161423726,1020,1019.9893544568398,759,252.88096406861527,0.619
494,11.713501347766886,1020,1019.9893478733792,745,243.6520393587196,0.62
491,11.667587911882332,1020,1019.9893413136373,732,232.45013824951658,0.621
494,11.757342546380048,1020,1019.9893347776791,718,219.41871145050456,0.622
497,11.848090293815547,1020,1019.9893282655697,703,204.72801798798034,0.623
505,11.957289398881295,1020,1019.9893217773732,690,188.5728749094634,0.624
523,12.203764067211033,1020,1019.9893153131537,679,171.17032730070915,0.625
538,12.250513114913844,1020,1019.9893088729758,671,152.7571540596002,0.626
542,12.107664166510183,1020,1019.989302456904,657,133.5870081451583,0.627
536,12.020597114876253,1020,1019.9892960650026,638,113.9269236873857,0.628
528,12.059899404035304,1020,1019.9892896973355,615,94.05293538884742,0.629
522,12.256044452581325,1020,1019.9892833539674,592,74.24465476717104,0.63
513,12.556222212284242,1020,1019.9892770349624,568,54.77880989155159,0.631
501,12.616586570637315,1020,1019.9892707403841,544,35.92193875185194,0.632
484,12.577207791325204,1020,1019.9892644702962,523,17.9225906818873,0.633
480,12.565641515100742,1020,1019.989258224762,504,1.0035076509664098,0.634
493,12.444116775667379,1020,1019.9892520038446,487,-14.645685359316628,0.635
500,12.315666858121904,1020,1019.9892458076068,473,-28.87475470015435,0.636
501,12.19224877882784,1020,1019.9892396361114,458,-41.577625225030715,0.637
501,12.200950123599913,1020,1019.9892334894206,446,-52.69526056666972,0.638
507,12.274594574987143,1020,1019.9892273675958,437,-62.216395359594635,0.639
505,12.221245407567913,1020,1019.9892212706981,430,-70.17599638485544,0.64
508,12.211220606620083,1020,1019.9892151987887,425,-76.6514827350397,0.641
516,12.356289917811715,1020,1019.989209151929,423,-81.75689610322867,0.642
516,12.300906202340116,1020,1019.9892031301796,424,-85.63537001229892,0.643
527,12.117335640856112,1020,1019.9891971336009,427,-88.45038736616819,0.644
527,11.994922108811082,1020,1019.989191162253,429,-90.37642329838877,0.645
529,12.013113385077526,1020,1019.9891852161958,431,-91.5896279854737,0.646
523,12.013608650094259,1020,1019.989179295489,431,-92.25919827863736,0.647
523,11.934099894478738,1020,1019.989173400192,430,-92.54001376281629,0.648
524,11.896354988939864,1020,1019.9891675303646,429,-92.56698077691404,0.649
515,11.899888922333819,1020,1019.9891616860663,425,-92.45135542638818,0.65
510,11.697358631359561,1020,1019.9891558673556,423,-92.27912641398314,0.651
504,11.329944755421236,1020,1019.9891500742918,420,-92.11135295771054,0.652
497,11.008782444197134,1020,1019.989144306934,417,-91.98619110202776,0.653
487,10.776819643225762,1020,1019.9891385653403,413,-91.92221687849559,0.654
488,10.678445557751148,1020,1019.9891328495686,409,-91.92257498832164,0.655
497,10.661882873350194,1020,1019.9891271596765,408,-91.97945169770317,0.656
507,10.766974128611569,1020,1019.9891214957219,408,-92.078393505013,0.657
510,10.66810465864788,1020,1019.9891158577619,409,-92.20206754734576,0.658
512,10.179998362603113,1020,1019.9891102458536,412,-92.3331759537782,0.659
518,9.681496303381827,1020,1019.9891046600536,414,-92.4563765418387,0.66
522,9.511888225518678,1020,1019.9890991004189,418,-92.55920524356978,0.661
526,9.551735565467741,1020,1019.9890935670054,420,-92.63212219081275,0.662
527,9.682573218109335,1020,1019.9890880598685,421,-92.66789902706205,0.663
521,9.837902529639603,1020,1019.9890825790638,423,-92.66062161451336,0.664
520,10.010600543940738,1020,1019.9890771246468,424,-92.60459884796981,0.665
521,10.039706800150249,1020,1019.9890716966728,427,-92.49344936569204,0.666
515,10.014330678541446,1020,1019.989066295197,427,-92.31958955128596,0.667
512,10.031398335641393,1020,1019.9890609202738,426,-92.07427234119264,0.668
506,10.136314828735445,1020,1019.9890555719575,423,-91.74823041551362,0.669
494,10.137960746998683,1020,1019.9890502503011,419,-91.33286729957213,0.67
492,10.104794414405015,1020,1019.989044955358,417,-90.82183126832287,0.671
499,10.008816383776676,1020,1019.9890396871809,414,-90.2127198798543,0.672
500,9.939746603396681,1020,1019.9890344458225,412,-89.50861514908621,0.673
506,9.844479322020147,1020,1019.9890292313347,412,-88.71915049961797,0.674
514,9.6605399872894,1020,1019.9890240437693,413,-87.86086171973184,0.675
521,9.5855454313163,1020,1019.9890188831786,417,-86.95666923964622,0.676
527,9.684722936964762,1020,1019.9890137496144,422,-86.03446569451461,0.677
526,9.778742966268464,1020,1019.9890086431286,428,-85.12492187817949,0.678
524,9.794446087846044,1020,1019.989003563773,432,-84.25875210796535,0.679
523,9.666315798087625,1020,1019.9889985115996,435,-83.46377332449516,0.68
519,9.519935020008583,1020,1019.9889934866604,438,-82.76213447524579,0.681
516,9.548743852776816,1020,1019.988988489007,439,-82.1680788500689,0.682
509,9.621139863227175,1020,1019.9889835186904,439,-81.68653762051473,0.683
507,9.606632010189553,1020,1019.9889785757613,438,-81.31274948270733,0.684
502,9.735293360072653,1020,1019.9889736602707,436,-81.0329731358655,0.685
500,9.912797809142438,1020,1019.9889687722697,433,-80.82622183231071,0.686
495,10.102777303910448,1020,1019.988963911809,429,-80.66681841371971,0.687
495,10.18277558195748,1020,1019.9889590789393,425,-80.52746054023767,0.688
499,10.174296021081753,1020,1019.9889542737109,422,-80.38241341685281,0.689
505,10.236543090438802,1020,1019.9889494961743,419,-80.21042306876745,0.69
510,10.269397546557718,1020,1019.9889447463801,420,-79.996974253938,0.691
518,10.194169229303508,1020,1019.9889400243782,423,-79.7356030856342,0.692
522,10.130088777408483,1020,1019.9889353302182,426,-79.42810542214173,0.693
528,10.222004731688786,1020,1019.9889306639496,431,-79.08363827759823,0.694
526,10.34928103829131,1020,1019.9889260256222,435,-78.71686701935593,0.695
525,10.37685188223007,1020,1019.9889214152848,440,-78.34544090516106,0.696
520,10.4061144972452,1020,1019.9889168329863,442,-77.98716495598953,0.697
519,10.468497418990355,1020,1019.9889122787753,444,-77.65726688759565,0.698
515,10.480665887049355,1020,1019.9889077527004,444,-77.36613206047726,0.699
512,10.477633099364866,1020,1019.9889032548107,444,-77.11780394392036,0.7
505,10.462381942924042,1020,1019.9888987851549,442,-76.90943585867545,0.701
500,10.450224064102889,1020,1019.9888943437817,440,-76.73174815707208,0.702
496,10.432540884484474,1020,1019.9888899307401,437,-76.57040990006111,0.703
494,10.443840044369397,1020,1019.9888855460794,433,-76.4081407926069,0.704
495,10.444972139963804,1020,1019.9888811898485,429,-76.22723166911031,0.705
496,10.338007654482347,1020,1019.9888768620962,427,-76.01212270046544,0.706
503,10.319325336778354,1020,1019.988872562871,425,-75.7516677311055,0.707
511,10.392537455731471,1020,1019.9888682922218,426,-75.44075569709466,0.708
518,10.392733366957838,1020,1019.9888640501971,429,-75.08105286059305,0.709
527,10.36398907587851,1020,1019.9888598368447,433,-74.68076048018418,0.71
531,10.232187830021044,1020,1019.9888556522118,438,-74.25343160915443,0.711
530,10.080800596365435,1020,1019.9888514963449,443,-73.81603350391984,0.712
526,10.095818358909384,1020,1019.9888473692898,446,-73.38655458917259,0.713
524,10.205227856974991,1020,1019.9888432710922,448,-72.9815189057997,0.714
521,10.439871102786555,1020,1019.9888392017968,450,-72.6137780982366,0.715
517,10.66973409247444,1020,1019.9888351614485,450,-72.29090365568346,0.716
511,10.704649269675093,1020,1019.9888311500916,449,-72.01441075651582,0.717
507,10.714466705732363,1020,1019.9888271677709,447,-71.77992387618066,0.718
499,10.758890196224737,1020,1019.9888232145298,444,-71.57825880930503,0.719
492,10.868203723028484,1020,1019.9888192904122,440,-71.39726241267017,0.72
490,10.971854518869264,1020,1019.9888153954615,435,-71.22413711353906,0.721
495,11.040206599137974,1020,1019.9888115297202,432,-71.04789819272061,0.722
499,11.023176003942389,1020,1019.9888076932306,430,-70.86158197217247,0.723
505,10.969941109516764,1020,1019.9888038860348,431,-70.66385116264861,0.724
513,10.907338646822842,1020,1019.9888001081753,433,-70.45972932075783,0.725
519,11.017302909414669,1020,1019.9887963596938,437,-70.26032753758746,0.726
526,11.035259896248453,1020,1019.9887926406321,442,-70.08158140724001,0.727
525,10.993352918422405,1020,1019.9887889510322,446,-69.94216880292214,0.728
524,10.952000866671955,1020,1019.9887852909354,450,-69.86090387751442,0.729
516,10.992653293429344,1020,1019.9887816603831,452,-69.85398056915662,0.73
518,10.992805467829717,1020,1019.9887780594166,453,-69.93245940251039,0.731
518,10.93534961698431,1020,1019.9887744880774,452,-70.1003545741297,0.732
513,10.938314705261076,1020,1019.9887709464064,451,-70.3535933747685,0.733
514,10.950806975262587,1020,1019.988767434444,450,-70.68000223911862,0.734
513,10.963608063250755,1020,1019.9887639522307,447,-71.06034042967529,0.735
506,11.060319366820028,1020,1019.988760499807,443,-71.470268978145,0.736
494,11.267916990927915,1020,1019.9887570772129,439,-71.8830215786169,0.737
488,11.305016634708387,1020,1019.988753684488,434,-72.27244753404504,0.738
487,11.227335725300486,1020,1019.9887503216718,431,-72.61603729696468,0.739
492,11.144187456807114,1020,1019.9887469888034,428,-72.89753006208579,0.74
508,11.002172381165536,1020,1019.988743685922,428,-73.10874666687295,0.741
517,10.90206163399797,1020,1019.9887404130667,431,-73.25038829650727,0.742
524,10.986658746913534,1020,1019.9887371702765,434,-73.3316814995403,0.743
532,11.035296333239998,1020,1019.9887339575906,439,-73.36891299623073,0.744
531,10.96041871880664,1020,1019.9887307750486,444,-73.3830577141268,0.745
527,10.934635378861286,1020,1019.9887276226904,448,-73.39683408746045,0.746
519,10.958611052768584,1020,1019.988724500556,451,-73.43160097845822,0.747
515,11.03939293433291,1020,1019.9887214086851,451,-73.50452846500778,0.748
510,11.081546499473408,1020,1019.9887183471168,451,-73.62642858216384,0.749
505,10.98143633801989,1020,1019.9887153158901,449,-73.80053118090358,0.75
504,11.120585074753064,1020,1019.9887123150437,446,-74.02235203416377,0.751
501,11.228836601979792,1020,1019.9887093446163,441,-74.28064653095939,0.752
498,11.36794508221892,1020,1019.9887064046455,438,-74.55929406057575,0.753
491,11.35359333918951,1020,1019.9887034951684,435,-74.83983502586196,0.754
495,11.17130644692128,1020,1019.9887006162211,431,-75.10429995146873,0.755
498,11.196122813146934,1020,1019.9886977678392,429,-75.33793713323358,0.756
503,11.231979725785504,1020,1019.9886949500577,427,-75.53146328043486,0.757
512,11.156582120533706,1020,1019.9886921629121,428,-75.68252761252566,0.758
519,11.138917498534056,1020,1019.988689406437,431,-75.79618739930034,0.759
531,11.17163470825277,1020,1019.9886866806668,434,-75.88433009005675,0.76
542,11.303122581419835,1020,1019.9886839856362,439,-75.96412532878732,0.761
531,11.42218506890867,1020,1019.9886813213797,442,-76.05572640519655,0.762
523,11.241701204317259,1020,1019.9886786879318,444,-76.17954344740522,0.763
519,11.024925586417783,1020,1019.9886760853263,446,-76.35346517332472,0.764
515,10.838403676021487,1020,1019.9886735135964,448,-76.59040733853448,0.765
511,10.646148243402632,1020,1019.9886709727747,447,-76.89651794370819,0.766
508,10.633111466920212,1020,1019.9886684628935,445,-77.27028037562796,0.767
504,10.641972253303868,1020,1019.9886659839852,443,-77.70263683926922,0.768
504,10.640529849900386,1020,1019.9886635360821,440,-78.1781195870935,0.769
493,10.528197912520433,1020,1019.9886611192159,435,-78.67684323258354,0.77
490,10.270445217145232,1020,1019.9886587334184,430,-79.17709435661138,0.771
491,10.11937975122118,1020,1019.9886563787217,427,-79.65816926561564,0.772
498,10.223448001016502,1020,1019.9886540551569,423,-80.10306991819964,0.773
512,10.335628334106262,1020,1019.988651762755,422,-80.5006807733671,0.774
521,10.385219708717045,1020,1019.9886495015461,423,-80.847117328233,0.775
525,10.34865026585787,1020,1019.9886472715601,427,-81.14605300865522,0.776
534,10.38439332556716,1020,1019.9886450728267,430,-81.40797865030858,0.777
525,10.383112820328451,1020,1019.9886429053748,434,-81.64850448296882,0.778
516,10.23932654935494,1020,1019.9886407692328,438,-81.88595197882478,0.779
518,10.093630860072606,1020,1019.9886386644279,440,-82.13858022350016,0.78
521,10.150217031926852,1020,1019.9886365909869,441,-82.42183583439402,0.781
515,10.220780093233307,1020,1019.9886345489361,442,-82.74600378458767,0.782
511,10.19753576403678,1020,1019.9886325383017,441,-83.11457406729735,0.783
506,10.18989301129085,1020,1019.9886305591093,439,-83.52353728887884,0.784
503,10.173097071862058,1020,1019.9886286113846,436,-83.96169531735217,0.785
501,10.027635128467576,1020,1019.9886266951524,433,-84.41193648606702,0.786
504,9.73070126338364,1020,1019.988624810438,428,-84.85329466840335,0.787
500,9.58694670265072,1020,1019.9886229572666,423,-85.26350357338131,0.788
497,9.609481973330471,1020,1019.9886211356633,419,-85.62168612625332,0.789
503,9.627302567457596,1020,1019.9886193456531,418,-85.9107958878208,0.79
509,9.60866533097237,1020,1019.9886175872601,418,-86.11946074931122,0.791
519,9.609096995736445,1020,1019.988615860508,420,-86.24296715590704,0.792
524,9.576820934321015,1020,1019.98861416542,423,-86.28325279468096,0.793
528,9.495163762631952,1020,1019.9886125020188,428,-86.24792537939425,0.794
518,9.518296069914966,1020,1019.9886108703266,432,-86.1484705007286,0.795
521,9.43431976895993,1020,1019.9886092703658,435,-85.9979298502264,0.796
524,9.360172785320879,1020,1019.9886077021578,437,-85.80840473333915,0.797
522,9.234162402489345,1020,1019.9886061657243,439,-85.58875926062768,0.798
514,9.162024350361426,1020,1019.9886046610862,439,-85.34286370495002,0.799
508,9.282227120436795,1020,1019.9886031882642,439,-85.06863996051125,0.8
502,9.114037343823107,1020,1019.9886017472785,438,-84.75806032262594,0.801
502,9.000073294654971,1020,1019.9886003381492,435,-84.39812155696784,0.802
505,8.913810415052543,1020,1019.988598960896,432,-83.972682673786,0.803
499,8.99697221694325,1020,1019.9885976155382,429,-83.4649319570538,0.804
492,9.294655062528307,1020,1019.9885963020951,424,-82.86015212108191,0.805
495,9.453675402409841,1020,1019.9885950205852,423,-82.14839648851998,0.806
504,9.496197673874551,1020,1019.9885937710272,422,-81.32668487036571,0.807
512,9.591234365786308,1020,1019.9885925534398,424,-80.4003801853393,0.808
518,9.590465044365201,1020,1019.9885913678407,427,-79.3835114526566,0.809
524,9.577612725643522,1020,1019.9885902142468,432,-78.29795124685145,0.81
527,9.529364476684814,1020,1019.9885890926752,438,-77.17151433273588,0.811
524,9.535711204851564,1020,1019.9885880031428,443,-76.0351945555947,0.812
524,9.809030344299028,1020,1019.988586945666,447,-74.9198760754453,0.813
520,10.111375294264251,1020,1019.9885859202608,449,-73.85292521214652,0.814
514,10.209266774825215,1020,1019.9885849269425,452,-72.8550827300292,0.815
511,10.185290811369635,1020,1019.9885839657267,454,-71.93803644840663,0.816
515,10.15399827979182,1020,1019.9885830366287,455,-71.10297079638353,0.817
508,10.12492832586704,1020,1019.9885821396646,454,-70.34027470698292,0.818
503,10.054478211048204,1020,1019.9885812748497,452,-69.63045230353602,0.819
497,10.051056329013967,1020,1019.9885804421987,448,-68.94613373520373,0.82
494,10.196289977820564,1020,1019.9885796417256,444,-68.25494198493446,0.821
497,10.3356041356661,1020,1019.9885788734445,439,-67.52285483199083,0.822
502,10.299731047731758,1020,1019.988578137369,436,-66.71762907652202,0.823
504,10.258057917334773,1020,1019.9885774335129,436,-65.81184258374343,0.824
513,10.344667566941206,1020,1019.9885767618892,440,-64.78516643709932,0.825
519,10.290822801512617,1020,1019.9885761225108,445,-63.62559928749291,0.826
530,10.218788469124279,1020,1019.9885755153904,451,-62.32955826900185,0.827
529,10.211697328194198,1020,1019.9885749405402,456,-60.90089372747693,0.828
531,10.352765746219644,1020,1019.9885743979729,461,-59.34904557513356,0.829
526,10.45286954752823,1020,1019.9885738877018,464,-57.68666372384465,0.83
523,10.447334220259636,1020,1019.9885734097392,468,-55.927063742480385,0.831
520,10.473270173238205,1020,1019.9885729640968,471,-54.08188323634628,0.832
513,10.642844731976156,1020,1019.9885725507864,472,-52.15925274279146,0.833
507,10.67824750336704,1020,1019.98857216982,473,-50.1627077601487,0.834
505,10.711228070943623,1020,1019.9885718212089,473,-48.090957393456975,0.835
501,10.761530276320858,1020,1019.9885715049639,473,-45.938503225108924,0.836
490,10.854971094405316,1020,1019.9885712210961,472,-43.696983865897934,0.837
485,10.907101348563511,1020,1019.9885709696154,470,-41.35701978275368,0.838
492,10.939715702008936,1020,1019.9885707505317,469,-38.91026109124206,0.839
504,10.955046005788144,1020,1019.9885705638543,469,-36.35130841291062,0.84
511,11.0465206921377,1020,1019.9885704095922,472,-33.679192037474294,0.841
517,11.119774399652705,1020,1019.9885702877544,476,-30.898160328987167,0.842
521,11.090670126867009,1020,1019.9885701983497,483,-28.01763775344753,0.843
527,11.048716529618465,1020,1019.9885701413863,490,-25.051348853635915,0.844
526,10.997154157032417,1020,1019.9885701168718,497,-22.015742825270667,0.845
527,10.953420123380928,1020,1019.988570124813,504,-18.927968910994004,0.846
523,10.919520073032148,1020,1019.988570165216,508,-15.803725473429868,0.847
519,10.915722866940342,1020,1019.988570238086,512,-12.65532458512798,0.848
519,10.857821553407238,1020,1019.9885703434287,516,-9.490279547121933,0.849
510,10.83561422916049,1020,1019.9885704812485,519,-6.31064437330037,0.85
506,10.878569560241981,1020,1019.9885706515496,519,-3.113225810710278,0.851
502,10.858217255212063,1020,1019.9885708543355,519,0.10933609834552842,0.852
498,10.706124577323354,1020,1019.9885710896095,519,3.366749341595907,0.853
494,10.583353526039886,1020,1019.9885713573748,519,6.668755453431422,0.854
492,10.454770682712915,1020,1019.988571657634,519,10.022642057880633,0.855
494,10.35083452291011,1020,1019.9885719903895,519,13.430942064660476,0.856
495,10.303263204688664,1020,1019.9885723556434,522,16.88966623107598,0.857
509,10.280121125893716,1020,1019.9885727533982,527,20.38735268877531,0.858
519,10.350626474748786,1020,1019.9885731836556,533,23.905109146475784,0.859
527,10.330937989074608,1020,1019.988573646417,541,27.417684478897893,0.86
531,10.524987499293525,1020,1019.9885741416832,549,30.895457961784214,0.861
527,10.661009418631442,1020,1019.9885746694553,555,34.307101454028334,0.862
525,10.601274985882865,1020,1019.988575229734,561,37.622574191689054,0.863
521,10.47262199387526,1020,1019.9885758225204,566,40.816065114360434,0.864
518,10.43940599755023,1020,1019.9885764478153,570,43.8685068444206,0.865
515,10.486904806784361,1020,1019.9885771056196,572,46.76934293834382,0.866
513,10.554593082035842,1020,1019.9885777959338,574,49.51732542572495,0.867
510,10.68922347659799,1020,1019.9885785187574,575,52.120240200228494,0.868
505,10.813150352594164,1020,1019.9885792740901,575,54.59358936305788,0.869
499,10.907955995118321,1020,1019.9885800619307,573,56.958387999849634,0.87
495,10.989921906213752,1020,1019.9885808822781,571,59.23834493199424,0.871
497,11.023410535350111,1020,1019.9885817351304,570,61.45677967929845,0.872
504,11.044618931598292,1020,1019.9885826204853,569,63.6336680808113,0.873
505,11.016179404409996,1020,1019.9885835383401,571,65.7831966584596,0.874
514,10.876988436959223,1020,1019.988584488692,575,67.91213836215297,0.875
518,10.987125966770574,1020,1019.9885854715375,580,70.01924740766381,0.876
521,11.106990623471741,1020,1019.9885864868724,586,72.09572587069553,0.877
523,11.178197664078906,1020,1019.9885875346916,592,74.1266634540507,0.878
523,11.199147935915638,1020,1019.9885886149899,597,76.09321914621049,0.879
521,11.210954934665462,1020,1019.9885897277612,602,77.97521905950732,0.88
519,11.153102329447167,1020,1019.9885908729992,605,79.75380002274883,0.881
519,11.045538781524046,1020,1019.9885920506975,608,81.41373634119643,0.882
515,10.868565126730873,1020,1019.9885932608489,608,82.94514313048505,0.883
508,10.910354744272983,1020,1019.9885945034451,609,84.34434401790355,0.884
494,11.007022607856648,1020,1019.9885957784776,608,85.61381034168771,0.885
494,11.051531517381667,1020,1019.9885970859372,606,86.76120799806989,0.886
492,11.068447110096457,1020,1019.9885984258152,602,87.79771159415965,0.887
491,11.090287310099121,1020,1019.9885997981031,600,88.73584898726044,0.888
493,10.987813426136041,1020,1019.9886012027913,598,89.58720827119136,0.889
501,10.866346263541788,1020,1019.9886026398702,597,90.36036150742514,0.89
514,10.764620668421793,1020,1019.9886041093299,598,91.05932917551831,0.891
523,10.71769476258242,1020,1019.9886056111594,600,91.68282987008041,0.892
527,10.709842132618629,1020,1019.9886071453469,604,92.22444288520764,0.893
531,10.758972071543685,1020,1019.9886087118806,608,92.67367449711038,0.894
530,10.899964997441577,1020,1019.9886103107486,612,93.01778289146058,0.895
528,11.152536812769386,1020,1019.9886119419392,615,93.24410276309821,0.896
524,11.274547358740403,1020,1019.98861360544,618,93.34253540542998,0.897
517,11.289325404634868,1020,1019.9886153012384,620,93.30784299260941,0.898
512,11.27407528312237,1020,1019.9886170293211,620,93.1414084850731,0.899
504,11.230132681964983,1020,1019.9886187896749,618,92.8521909472941,0.9
500,11.420696034462901,1020,1019.9886205822862,616,92.45671081637484,0.901
498,11.667309206518379,1020,1019.9886224071414,614,91.97802646721117,0.902
497,11.911689270603379,1020,1019.9886242642259,611,91.44379479053886,0.903
493,11.94145412404685,1020,1019.9886261535256,606,90.88362830161245,0.904
495,11.919252264078654,1020,1019.9886280750264,601,90.32605739618813,0.905
499,11.872516312049788,1020,1019.9886300287138,598,89.79546863040497,0.906
504,11.705466554390943,1020,1019.9886320145728,595,89.3094079595329,0.907
516,11.62918824585286,1020,1019.9886340325874,595,88.87660387517091,0.908
524,11.653385784428265,1020,1019.9886360827417,596,88.49597938779807,0.909
529,11.585961823276241,1020,1019.9886381650198,600,88.15679406053567,0.91
532,11.277090216940138,1020,1019.9886402794058,604,87.83990652278052,0.911
528,11.16196812727062,1020,1019.9886424258833,607,87.51999797464839,0.912
520,11.110098521593505,1020,1019.9886446044355,610,87.16847268389847,0.913
515,11.018177660825325,1020,1019.9886468150447,611,86.75667151878301,0.914
513,10.901133646769077,1020,1019.9886490576927,612,86.25900807725519,0.915
510,10.792861231844732,1020,1019.9886513323607,612,85.65566234704923,0.916
511,10.73573368814826,1020,1019.9886536390303,610,84.93453541444427,0.917
508,10.550295127759748,1020,1019.9886559776822,608,84.09226871964587,0.918
498,10.23248757785569,1020,1019.9886583482979,605,83.13424966581621,0.919
487,10.177732564378914,1020,1019.9886607508578,601,82.07364823618218,0.92
489,10.20907451778567,1020,1019.9886631853418,597,80.92964300784641,0.921
497,10.21618509587722,1020,1019.98866565173,592,79.72508725807474,0.922
505,10.189604035785612,1020,1019.9886681500019,589,78.48392630762162,0.923
515,10.160123644490906,1020,1019.988670680137,586,77.2286978327978,0.924
524,10.215197584355057,1020,1019.9886732421149,585,75.97842375382228,0.925
531,10.120978581751036,1020,1019.9886758359147,585,74.74713785756211,0.926
534,9.983556745542515,1020,1019.988678461515,585,73.54319665490152,0.927
525,9.94646361069327,1020,1019.9886811188943,588,72.36940621390043,0.928
523,9.965295358907836,1020,1019.9886838080309,590,71.22388120756646,0.929
519,9.946683871011222,1020,1019.988686528903,592,70.10145068916088,0.93
512,9.940347016459388,1020,1019.9886892814883,593,68.99535328709894,0.931
508,9.961435641329446,1020,1019.988692065764,593,67.89893373352518,0.932
506,10.009077377089278,1020,1019.9886948817074,592,66.80706688148406,0.933
512,9.967654453084304,1020,1019.9886977292953,591,65.7170905221655,0.934
511,9.966030630391595,1020,1019.988700608504,588,64.62911442149115,0.935
500,9.964328805389657,1020,1019.98870351931,583,63.545677339951396,0.936
496,9.907919848141844,1020,1019.9887064616895,579,62.4708323863569,0.937
496,9.886480646178867,1020,1019.9887094356185,575,61.40883837576987,0.938
500,9.93399881035593,1020,1019.9887124410724,571,60.36270495087633,0.939
507,9.993468390928271,1020,1019.9887154780262,568,59.332869605452736,0.94
512,10.023551810891105,1020,1019.9887185464539,567,58.3162698832487,0.941
509,10.002798022830683,1020,1019.9887216463288,568,57.30601559225117,0.942
511,9.991264509759285,1020,1019.9887247776231,568,56.291772064725805,0.943
529,9.969318209159752,1020,1019.9887279403091,572,55.260850762173874,0.944
532,9.877112735437414,1020,1019.9887311343585,574,54.19988666742412,0.945
529,9.67444914473454,1020,1019.9887343597428,575,53.09688229947874,0.946
523,9.482200766339153,1020,1019.9887376164328,576,51.94333213270791,0.947
516,9.479325630174948,1020,1019.9887409043989,576,50.73611851434222,0.948
515,9.627900352652132,1020,1019.9887442236108,575,49.47889195408076,0.949
509,9.783919051621226,1020,1019.9887475740369,574,48.182708790803694,0.95
507,9.562336324710301,1020,1019.9887509556455,571,46.865788247074164,0.951
500,9.326138824812492,1020,1019.9887543684043,568,45.55235825455669,0.952
496,9.170979071587928,1020,1019.988757812281,564,44.27067384256924,0.953
494,9.296702448367926,1020,1019.9887612872429,559,43.050401029690626,0.954
495,9.275215720388031,1020,1019.9887647932568,554,41.91965017054982,0.955
498,9.26372936717537,1020,1019.9887683302894,550,40.90200295829877,0.956
501,9.454129855051217,1020,1019.9887718983076,547,40.013895701589654,0.957
514,9.49732950655307,1020,1019.9887754972777,547,39.26269103446126,0.958
523,9.393003324409255,1020,1019.9887791271657,547,38.64569107923958,0.959
529,9.4519664817569,1020,1019.9887827879373,550,38.15022653667565,0.96
528,9.512181348816876,1020,1019.9887864795586,554,37.75481531451866,0.961
527,9.502332378518288,1020,1019.9887902019949,558,37.4312426537152,0.962
521,9.483911909291987,1020,1019.9887939552112,560,37.14729460464427,0.963
518,9.499006926327604,1020,1019.9887977391721,563,36.86979735349517,0.964
513,9.518911071775802,1020,1019.9888015538417,563,36.5675878139888,0.965
511,9.621025639981411,1020,1019.988805399183,563,36.21406728177431,0.966
510,9.691661924462595,1020,1019.9888092751584,561,35.789062139103244,0.967
509,9.77311221378788,1020,1019.9888131817291,559,35.27982042321926,0.968
501,10.006649212735,1020,1019.9888171188562,556,34.68109460057937,0.969
497,10.050555079346625,1020,1019.9888210864996,551,33.99438275361522,0.97
497,9.961382775136379,1020,1019.9888250846187,547,33.22650750313344,0.971
497,9.861401796986424,1020,1019.9888291131723,544,32.38779090326193,0.972
496,9.852978799515304,1020,1019.9888331721189,542,31.490123060013065,0.973
500,9.912466780827863,1020,1019.9888372614163,541,30.545216365772117,0.974
510,9.961968552762166,1020,1019.9888413810221,540,29.563288388265274,0.975
519,9.947993778154883,1020,1019.9888455308936,542,28.55233468114267,0.976
525,9.9433318951024,1020,1019.9888497109877,543,27.518052148776817,0.977
531,9.974943418428753,1020,1019.9888539212601,544,26.46436928683206,0.978
521,9.857223256202335,1020,1019.9888581616664,545,25.394446523011272,0.979
518,9.72104366132795,1020,1019.9888624321615,547,24.311940298088313,0.98
521,9.691233206688144,1020,1019.9888667326999,548,23.22228594474674,0.981
517,9.686889644559793,1020,1019.9888710632353,548,22.133750196317273,0.982
511,9.744524981510134,1020,1019.9888754237207,546,21.05803537352713,0.983
508,9.72793373784795,1020,1019.9888798141095,543,20.010281815914034,0.984
508,9.544814121559524,1020,1019.9888842343543,542,19.008404819049556,0.985
500,9.300155042926281,1020,1019.9888886844072,538,18.071803402306106,0.986
497,9.134713600082394,1020,1019.9888931642203,535,17.21957579108813,0.987
495,9.010471446476828,1020,1019.9888976737451,530,16.46845876438141,0.988
499,8.946345308323126,1020,1019.9889022129331,526,15.830765803977947,0.989
502,8.918873558048116,1020,1019.9889067817352,523,15.31262310003906,0.99
507,8.959181580393992,1020,1019.9889113801013,523,14.912784212228544,0.991
519,8.969133416349184,1020,1019.9889160079805,524,14.622239638308686,0.992
523,8.96540916406994,1020,1019.9889206653214,527,14.424732172173371,0.993
532,8.971606081224975,1020,1019.9889253520722,532,14.298158644660631,0.994
527,8.799113522796832,1020,1019.9889300681815,535,14.21670631444819,0.995
525,8.664170504892965,1020,1019.988934813597,538,14.153461948326862,0.996
522,8.627307120531995,1020,1019.9889395882664,539,14.083162975278979,0.997
520,8.575140744204267,1020,1019.9889443921373,540,13.98474280667482,0.998
517,8.5363361270978,1020,1019.9889492251572,540,13.843354878323249,0.999
513,8.544075672523723,1020,1019.9889540872722,539,13.651632315641814,1.0
507,8.665523647449621,1020,1019.9889589784283,537,13.41003934939166,1.001
499,8.600105806543802,1020,1019.9889638985709,536,13.1262837181705,1.002
502,8.677183153801238,1020,1019.988968847645,532,12.813873992031048,1.003
501,8.735138130937626,1020,1019.988973825595,528,12.4900106036581,1.004
497,8.890634004061585,1020,1019.9889788323657,525,12.173083650957812,1.005
498,9.091946393799828,1020,1019.9889838679009,521,11.880103541459107,1.006
499,9.20642035205233,1020,1019.9889889321447,520,11.624402488585137,1.007
509,9.210585710736437,1020,1019.9889940250408,520,11.413910198339158,1.008
515,9.276612639561838,1020,1019.9889991465324,522,11.250227750625632,1.009
516,9.449960438050011,1020,1019.9890042965616,525,11.12861018310511,1.01
521,9.616521840899779,1020,1019.9890094750702,528,11.038838373005536,1.011
520,9.76733141100258,1020,1019.9890146820002,531,10.966835683371178,1.012
519,9.955028560122162,1020,1019.9890199172927,534,10.89678394152317,1.013
516,9.943086244210843,1020,1019.9890251808887,536,10.813430319421638,1.014
516,9.832571229656825,1020,1019.9890304727281,537,10.704258238171228,1.015
512,9.638134565977246,1020,1019.9890357927505,537,10.561221864499437,1.016
511,9.559973811327215,1020,1019.989041140895,536,10.38181004090945,1.017
514,9.495649856755085,1020,1019.9890465171001,535,10.16930190833113,1.018
510,9.483574891802974,1020,1019.9890519213044,531,9.932190284131163,1.019
504,9.39830789956836,1020,1019.9890573534457,527,9.682866059933012,1.02
499,9.427055186578754,1020,1019.9890628134611,523,9.435762803123184,1.021
500,9.43845587007412,1020,1019.9890683012871,520,9.205239912053468,1.022
498,9.28946891473453,1020,1019.98907381686,518,9.003520963402982,1.023
500,9.155849264382082,1020,1019.9890793601161,518,8.838993072732254,1.024
504,9.069688984925415,1020,1019.9890849309912,519,8.715114139981754,1.025
516,9.080315857289623,1020,1019.9890905294209,521,8.630077706784109,1.026
529,9.084119262511699,1020,1019.9890961553405,525,8.577266038460518,1.027
534,8.948081305869048,1020,1019.9891018086854,529,8.54640020200431,1.028
529,8.890611816346148,1020,1019.9891074893907,532,8.525190846518932,1.029
528,8.918248334744138,1020,1019.9891131973912,533,8.50122241517137,1.03
527,8.92056100985946,1020,1019.9891189326221,534,8.463778183253888,1.031
517,8.870740069745226,1020,1019.9891246950182,533,8.405335792617622,1.032
508,8.77342992904186,1020,1019.989130484514,532,8.322524763416533,1.033
499,8.74938142806933,1020,1019.9891363010437,531,8.216424671835693,1.034
500,8.80613629816678,1020,1019.9891421445408,529,8.092180193648955,1.035
492,8.893373764576841,1020,1019.9891480149389,526,7.958004196958322,1.036
488,9.009366923752747,1020,1019.9891539121708,524,7.823722626134928,1.037
495,9.056926058721505,1020,1019.9891598361695,521,7.699076921768237,1.038
505,9.071417244786353,1020,1019.9891657868678,519,7.592033922402878,1.039
511,9.041240421153924,1020,1019.9891717641984,518,7.5073541751543145,1.04
512,9.01280197207643,1020,1019.989177768094,519,7.4456354665440445,1.041
515,9.047362544571296,1020,1019.9891837984864,520,7.4029821959069295,1.042
523,9.117662580876683,1020,1019.9891898553068,522,7.371361701233494,1.043
527,9.129714210834504,1020,1019.9891959384862,524,7.339609277756914,1.044
529,9.268255358076479,1020,1019.9892020479555,527,7.294949157116167,1.045
525,9.338993741474217,1020,1019.9892081836446,530,7.224821865647784,1.046
515,9.402208217475465,1020,1019.989214345483,532,7.118759005734621,1.047
513,9.426585883473056,1020,1019.9892205334003,533,6.970031969598507,1.048
513,9.371414888791245,1020,1019.989226747325,533,6.776825374854481,1.049
510,9.313067079314147,1020,1019.9892329871853,531,6.542747550559532,1.05
507,9.219228425810487,1020,1019.989239252909,530,6.276581102214851,1.051
506,9.335421564892561,1020,1019.9892455444232,527,5.991283325414487,1.052
505,9.281988127150926,1020,1019.9892518616547,523,5.702354063822414,1.053
500,9.151560818765642,1020,1019.9892582045298,519,5.425783324010531,1.054
497,9.110021680660996,1020,1019.9892645729741,516,5.175859626415391,1.055
501,8.990558344779858,1020,1019.9892709669119,515,4.963151085640591,1.056
504,8.841798678394733,1020,1019.9892773862679,514,4.792956987376946,1.057
512,8.853839508544182,1020,1019.9892838309655,514,4.664468501214088,1.058
518,8.792060692418003,1020,1019.9892903009285,516,4.570781891391265,1.059
521,8.605232990310174,1020,1019.9892967960799,519,4.4997898075605,1.06
527,8.497522899661211,1020,1019.9893033163429,524,4.435851431963622,1.061
523,8.391061249595653,1020,1019.9893098616402,527,4.362027543169364,1.062
520,8.242939277555204,1020,1019.989316431894,529,4.2625802451351635,1.063
515,8.251956734680206,1020,1019.9893230270271,530,4.125394629195054,1.064
515,8.328400826295074,1020,1019.9893296469617,531,3.9439877269507684,1.065
514,8.46920089548359,1020,1019.9893362916204,529,3.718824754048058,1.066
508,8.543103447811653,1020,1019.989342960925,528,3.457752405822124,1.067
508,8.472348443218415,1020,1019.9893496547969,527,3.175469652765942,1.068
504,8.35837149079584,1020,1019.9893563731574,525,2.8920739698952387,1.069
500,8.3774014895621,1020,1019.9893631159274,521,2.630833205802824,1.07
497,8.314477402584696,1020,1019.9893698830277,517,2.4154312518707375,1.071
498,8.261075555085176,1020,1019.9893766743793,513,2.2670106818318603,1.072
502,8.451531478091077,1020,1019.9893834899029,510,2.201376731174772,1.073
502,8.622044119701155,1020,1019.9893903295191,509,2.2267231744350595,1.074
514,8.789287963792875,1020,1019.9893971931477,510,2.342185758895697,1.075
521,8.869780275140076,1020,1019.9894040807079,513,2.537426146074064,1.076
527,8.822207102675078,1020,1019.9894109921187,517,2.793312250238812,1.077
527,8.836021227667247,1020,1019.9894179272986,522,3.0836108043349655,1.078
527,8.965298946572775,1020,1019.9894248861664,527,3.3774697265849527,1.079
522,9.165741864542493,1020,1019.98943186864,529,3.6423644595367843,1.08
519,9.490266761886438,1020,1019.9894388746369,530,3.8471305024701423,1.081
518,9.898431735877967,1020,1019.9894459040732,531,3.9647100597295237,1.082
510,10.057920939718107,1020,1019.9894529568654,530,3.9742983910986682,1.083
509,10.12239268841127,1020,1019.9894600329293,528,3.8626707752343163,1.084
504,10.247106222117509,1020,1019.9894671321807,527,3.6245871232482565,1.085
498,10.545694697812262,1020,1019.9894742545356,524,3.262292706556749,1.086
494,10.813098666867944,1020,1019.9894813999102,519,2.784247002664703,1.087
495,10.887876756368401,1020,1019.9894885682214,515,2.2033071260335304,1.088
500,10.976312360390928,1020,1019.9894957593855,512,1.5346570657556364,1.089
504,11.029393066115754,1020,1019.9895029733187,510,0.7937984747826471,1.09
507,11.024214063902482,1020,1019.9895102099371,509,-0.005103693627528753,1.091
511,11.065264769765442,1020,1019.9895174691568,510,-0.8502950012174763,1.092
517,11.11831884803486,1020,1019.9895247508938,511,-1.7328010154312055,1.093
527,11.123980718274257,1020,1019.9895320550639,515,-2.6460885079685785,1.094
526,11.038470880825871,1020,1019.9895393815826,517,-3.5851332067518418,1.095
521,10.882313725846238,1020,1019.9895467303658,519,-4.545107651383988,1.096
525,10.698144826107594,1020,1019.9895541013283,519,-5.519964911059562,1.097
520,10.619959941834342,1020,1019.9895614943842,519,-6.501210151696094,1.098
522,10.716930496419405,1020,1019.9895689094473,519,-7.477122439294352,1.099
516,10.776697986729399,1020,1019.9895763464309,517,-8.432621829605537,1.1
510,10.758652667244707,1020,1019.9895838052483,515,-9.349882965817754,1.101
504,10.760944369235853,1020,1019.9895912858118,511,-10.209687341725447,1.102
499,10.921571205872816,1020,1019.9895987880335,507,-10.993393791270286,1.103
489,11.06607059271317,1020,1019.9896063118248,503,-11.685304103116941,1.104
481,11.144698253299472,1020,1019.989613857097,499,-12.275122404880685,1.105
480,11.231751625441351,1020,1019.9896214237614,496,-12.760165881969431,1.106
496,11.083191814440035,1020,1019.9896290117289,494,-13.146988818642726,1.107
515,11.266514043701033,1020,1019.9896366209099,494,-13.452134318208158,1.108
524,11.614952664094877,1020,1019.9896442512144,496,-13.701824433033487,1.109
536,11.841875742732292,1020,1019.9896519025523,499,-13.930529109834891,1.11
540,11.914844322905367,1020,1019.9896595748331,503,-14.178500100166637,1.111
527,11.64801192700874,1020,1019.9896672679664,507,-14.488496181512016,1.112
524,11.564804790787045,1020,1019.9896749818616,510,-14.90203878217106,1.113
518,11.709145323194985,1020,1019.9896827164283,511,-15.455604764127855,1.114
508,11.807502155367551,1020,1019.989690471576,511,-16.177175921896165,1.115
507,11.874912433830422,1020,1019.9896982472136,511,-17.083522764000577,1.116
505,11.880124717309394,1020,1019.9897060432503,509,-18.17851233290767,1.117
508,12.105783014690092,1020,1019.9897138595951,507,-19.4526099320973,1.118
508,12.295000885187575,1020,1019.9897216961566,502,-20.88360675415823,1.119
508,12.350628134464213,1020,1019.9897295528434,496,-22.43846286946788,1.12
506,12.36806253640874,1020,1019.9897374295632,489,-24.076022378193986,1.121
502,12.412470280054494,1020,1019.9897453262237,483,-25.750252112054742,1.122
497,12.318721063504332,1020,1019.989753242732,479,-27.41359553520394,1.123
499,12.253068256721315,1020,1019.9897611789955,476,-29.02003359400384,1.124
513,12.14668749112159,1020,1019.9897691349214,477,-30.527508188159505,1.125
521,12.03410349932984,1020,1019.989777110416,480,-31.89948278425174,1.126
535,12.056022688686685,1020,1019.9897851053855,483,-33.10556788494865,1.127
534,12.051279103065339,1020,1019.9897931197364,487,-34.1212981998502,1.128
531,11.972294779462986,1020,1019.9898011533745,490,-34.9272834957097,1.129
526,11.82570821427041,1020,1019.9898092062052,492,-35.50804225613473,1.13
511,11.549330760543556,1020,1019.989817278134,492,-35.8508535470016,1.131
495,11.176831575418099,1020,1019.9898253690666,490,-35.944927142486726,1.132
493,11.00599672123385,1020,1019.989833478909,488,-35.781105477207674,1.133
497,11.031487075351015,1020,1019.989841607567,486,-35.35219269989467,1.134
501,10.805352804251948,1020,1019.9898497549465,484,-34.653879511149974,1.135
511,10.497428434402204,1020,1019.9898579209533,483,-33.68611882584988,1.136
499,10.232780232095454,1020,1019.9898661054934,481,-32.45472111694708,1.137
487,10.255172905884658,1020,1019.9898743084731,480,-30.972887087827058,1.138
496,10.303712136944071,1020,1019.9898825297981,480,-29.262382267849055,1.139
500,10.414027248849841,1020,1019.989890769374,481,-27.354084396255043,1.14
516,10.532030318871067,1020,1019.9898990271057,484,-25.287699049745008,1.141
522,10.478037764392038,1020,1019.9899073028977,488,-23.110536730847752,1.142
527,10.412845965434672,1020,1019.9899155966544,494,-20.87536489859391,1.143
530,10.420622102855603,1020,1019.9899239082805,500,-18.637475526675622,1.144
527,10.510495544211706,1020,1019.9899322376795,506,-16.451224089160437,1.145
524,10.684916427239731,1020,1019.989940584754,511,-14.366380927753623,1.146
520,10.866633781475432,1020,1019.9899489494068,513,-12.424676401869986,1.147
518,10.970799285146137,1020,1019.9899573315396,515,-10.656910712120547,1.148
516,10.903519718550303,1020,1019.9899657310538,517,-9.080941510963383,1.149
512,10.817780384821098,1020,1019.9899741478506,518,-7.700769332092037,1.15
508,10.832141532313337,1020,1019.9899825818314,518,-6.506827066300566,1.151
506,10.790171535656338,1020,1019.989991032898,516,-5.4774571791340865,1.152
502,10.567569153767712,1020,1019.9899995009517,515,-4.581438376828816,1.153
498,10.382009051804893,1020,1019.9900079858934,512,-3.7813117726233987,1.154
494,10.197729226910022,1020,1019.9900164876234,508,-3.0371668344619254,1.155
500,10.012821516162457,1020,1019.9900250060422,507,-2.310491151561561,1.156
504,10.04735732242378,1020,1019.9900335410506,505,-1.567675206517009,1.157
507,9.772649791782824,1020,1019.9900420925495,505,-0.782800000907487,1.158
510,9.409069695500309,1020,1019.9900506604407,508,0.0605788275686019,1.159
521,9.166251125596444,1020,1019.9900592446255,512,0.9688102633081571,1.16
527,9.10844468502655,1020,1019.9900678450052,519,1.9386992197369024,1.161
528,9.353947046273296,1020,1019.9900764614816,523,2.959085095598336,1.162
527,9.419345756248166,1020,1019.9900850939565,527,4.013172623990464,1.163
523,9.311998997164384,1020,1019.9900937423321,531,5.081255046488814,1.164
521,9.137973232586782,1020,1019.9901024065106,533,6.143440924231789,1.165
513,9.01014976403276,1020,1019.9901110863938,534,7.182022676342119,1.166
509,8.966475448474784,1020,1019.9901197818834,534,8.18319849616206,1.167
507,8.815373068761579,1020,1019.9901284928809,533,9.137966784361929,1.168
504,8.710973349172965,1020,1019.9901372192879,531,10.04213816052064,1.169
499,8.74281456736493,1020,1019.9901459610068,529,10.895537755928972,1.17
497,8.818025812721107,1020,1019.9901547179392,526,11.70058390471424,1.171
497,8.914975230222678,1020,1019.9901634899869,523,12.460514749699026,1.172
500,9.0087238398722,1020,1019.9901722770513,522,13.177580702104729,1.173
504,9.032172320822902,1020,1019.9901810790337,522,13.851520842481287,1.174
513,9.084257952639916,1020,1019.9901898958354,523,14.478593476794307,1.175
520,9.094177700640527,1020,1019.9901987273582,526,15.051341137044597,1.176
523,9.122769278690912,1020,1019.9902075735039,530,15.559152002405838,1.177
526,9.22788610122511,1020,1019.9902164341742,534,15.98955167640388,1.178
521,9.4351775946584,1020,1019.9902253092704,537,16.3300417933828,1.179
518,9.577938134135529,1020,1019.9902341986939,540,16.57021351136336,1.18
513,9.641456890604324,1020,1019.9902431023464,542,16.703817322067184,1.181
514,9.70495993721503,1020,1019.9902520201293,543,16.730470505917914,1.182
511,9.702352929508484,1020,1019.9902609519439,543,16.656727667097083,1.183
510,9.61119744562288,1020,1019.9902698976915,541,16.496321069258297,1.184
504,9.731040124319108,1020,1019.9902788572739,539,16.269485422699628,1.185
499,9.858185634939892,1020,1019.9902878305928,536,16.00140271019169,1.186
496,9.89664001396179,1020,1019.9902968175501,533,15.719921119537757,1.187
493,9.917370170760828,1020,1019.9903058180474,528,15.452803295255602,1.188
505,9.90274303563525,1020,1019.9903148319867,525,15.224830394465618,1.189
507,9.8179500873308,1020,1019.9903238592691,523,15.055119775217442,1.19
510,9.727475911634361,1020,1019.990332899796,522,14.954998534941351,1.191
515,9.755407894831714,1020,1019.9903419534688,523,14.926711304881326,1.192
522,9.805762077404923,1020,1019.9903510201888,526,14.963135733087755,1.193
532,9.853148989262419,1020,1019.9903600998572,530,15.0485477284985,1.194
531,9.90797007593423,1020,1019.9903691923749,534,15.16034073603241,1.195
529,9.891048243001292,1020,1019.9903782976434,537,15.27148107309368,1.196
525,9.9343713158359,1020,1019.9903874155633,539,15.353394341945016,1.197
519,9.930245541227325,1020,1019.9903965460356,540,15.378938350206447,1.198
519,9.944313073126327,1020,1019.9904056889617,540,15.325127845701289,1.199
512,9.972126714757856,1020,1019.9904148442432,540,15.175328873839941,1.2
507,9.947725630249513,1020,1019.9904240117825,538,14.920723949285955,1.201
500,9.9263061681904,1020,1019.9904331914821,535,14.560950522721832,1.202
492,10.074624443197933,1020,1019.9904423832444,532,14.103921644804968,1.203
490,10.235885329455733,1020,1019.990451586972,528,13.56493623796358,1.204
491,10.381634227163344,1020,1019.9904608025676,525,12.965263758741829,1.205
496,10.481092904609946,1020,1019.9904700299338,523,12.33043294292385,1.206
504,10.549088817481259,1020,1019.990479268973,521,11.688460055059323,1.207
512,10.543006951153844,1020,1019.9904885195878,523,11.068218200760102,1.208
518,10.649307338004792,1020,1019.9904977816813,524,10.498082200128698,1.209
527,10.642805792685966,1020,1019.9905070551571,526,10.004896013825416,1.21
528,10.562144763688632,1020,1019.9905163399188,529,9.613218869581361,1.211
529,10.562720152434002,1020,1019.9905256358701,531,9.344729535515471,1.212
525,10.516047796530447,1020,1019.9905349429154,532,9.217619326181065,1.213
519,10.48158732361713,1020,1019.9905442609596,534,9.245791267572143,1.214
515,10.651335952013492,1020,1019.9905535899082,536,9.437707157775748,1.215
508,10.758977291363312,1020,1019.9905629296671,536,9.794782924057653,1.216
505,10.807912123202545,1020,1019.9905722801417,535,10.30932022800403,1.217
505,10.88059286118658,1020,1019.9905816412373,533,10.962071813921526,1.218
500,10.990442689313943,1020,1019.9905910128595,530,11.719659097229227,1.219
500,10.924626872074189,1020,1019.9906003949139,524,12.532177192566456,1.22
494,11.012452221378528,1020,1019.9906097873067,520,13.331415594785996,1.221
497,11.108009878371137,1020,1019.9906191899435,516,14.030171722732522,1.222
499,11.07400245974906,1020,1019.9906286027307,514,14.52312145969955,1.223
502,10.990008448975804,1020,1019.9906380255751,513,14.689624930754551,1.224
512,10.91354150374483,1020,1019.9906474583839,515,14.39868815749809,1.225
518,11.152781686858644,1020,1019.9906569010649,518,13.516085443212239,1.226
531,11.40861613260463,1020,1019.9906663535252,521,11.913396696380582,1.227
533,11.514701454861989,1020,1019.9906758156725,527,9.478458079958276,1.228
529,11.450861435990564,1020,1019.9906852874145,531,6.1264954245962135,1.229
522,11.35872591678803,1020,1019.9906947686594,534,1.8110384264205661,1.23
517,11.195297821283098,1020,1019.9907042593153,533,-3.4663739559764823,1.231
513,11.044686771680837,1020,1019.9907137592903,529,-9.648672493539781,1.232
506,10.962142352863065,1020,1019.9907232684926,523,-16.618777017806508,1.233
510,11.132031083064879,1020,1019.9907327868312,513,-24.198798642001925,1.234
508,11.312953893170153,1020,1019.9907423142153,504,-32.15328445698648,1.235
499,11.363274009985613,1020,1019.9907518505537,492,-40.196541457981446,1.236
498,11.34182354655831,1020,1019.9907613957556,478,-48.00374302278657,1.237
495,11.29375559789132,1020,1019.9907709497301,463,-55.225203420757,1.238
496,11.249486778518477,1020,1019.9907805123866,449,-61.50292813329773,1.239
502,11.183871743830778,1020,1019.990790083635,437,-66.48833547411724,1.24
507,11.109018477241957,1020,1019.9907996633859,430,-69.85992212949171,1.241
519,11.11199474130715,1020,1019.9908092515496,423,-71.33962790464909,1.242
527,11.140605048787394,1020,1019.9908188480371,419,-70.70674615468306,1.243
529,11.24153906067019,1020,1019.990828452759,422,-67.8084175719672,1.244
535,11.330170846224517,1020,1019.9908380656265,431,-62.56602191332898,1.245
534,11.430219581899335,1020,1019.9908476865506,446,-54.97712612534035,1.246
523,11.416976975727112,1020,1019.9908573154433,461,-45.113029615160265,1.247
515,11.357283679119663,1020,1019.9908669522164,481,-33.11232781692846,1.248
508,11.20075954965972,1020,1019.990876596782,507,-19.171250244222065,1.249
499,11.06181615665817,1020,1019.9908862490523,531,-3.531782863855859,1.25
494,11.121982394116484,1020,1019.9908959089393,556,13.53126990485147,1.251
495,11.280611213728097,1020,1019.990905576355,577,31.723110873976474,1.252
495,11.283699048763648,1020,1019.9909152512126,593,50.74061021570358,1.253
495,11.16308413056171,1020,1019.9909249334263,605,70.28199153201503,1.254
499,11.147788173365422,1020,1019.9909346229105,617,90.0540693196079,1.255
504,11.268978989480006,1020,1019.9909443195801,628,109.77693125447958,1.256
508,11.454091030125568,1020,1019.9909540233501,639,129.18629984388065,1.257
521,11.597504727250735,1020,1019.990963734136,652,148.03407162698198,1.258
527,11.512602799742684,1020,1019.9909734518532,667,166.08768759776527,1.259
530,11.587462463867908,1020,1019.990983176417,683,183.12902646805148,1.26
527,11.802656895546217,1020,1019.9909929077434,701,198.9534420124573,1.261
527,11.997098427947721,1020,1019.9910026457482,719,213.36941115940098,1.262
523,12.211728685370165,1020,1019.9910123903481,739,226.19905436556058,1.263
516,12.447462101179262,1020,1019.9910221414601,755,237.2795715602808,1.264
510,12.640752619163763,1020,1019.9910318990013,770,246.46544204681146,1.265
508,12.719265056739319,1020,1019.991041662889,780,253.63109583518496,1.266
504,12.648309544182947,1020,1019.9910514330403,786,258.6736961304737,1.267
500,12.6064361012965,1020,1019.9910612093726,790,261.515682183229,1.268
496,12.495776789027092,1020,1019.9910709918034,787,262.10679833881954,1.269
495,12.511313545082958,1020,1019.9910807802506,778,260.42545892632603,1.27
495,12.399833132795186,1020,1019.9910905746318,768,256.4794431678602,1.271
500,12.314818405365177,1020,1019.9911003748647,756,250.30604762845266,1.272
507,12.399993589279957,1020,1019.9911101808678,745,241.97191191977015,1.273
509,12.577096252371113,1020,1019.9911199925608,735,231.57275045290658,1.274
515,12.69772145418819,1020,1019.9911298098631,725,219.23316153390778,1.275
526,12.495494342243015,1020,1019.9911396326946,716,205.10655862826306,1.276
531,12.283533059796104,1020,1019.9911494609754,706,189.37510633208143,1.277
527,12.095901740291671,1020,1019.9911592946254,698,172.249381619853,1.278
528,11.91161771372119,1020,1019.991169133565,689,153.96735544112545,1.279
528,11.857898854052321,1020,1019.9911789777155,674,134.79223316325744,1.28
526,11.800173111915004,1020,1019.9911888269993,652,115.0087301336835,1.281
520,11.821538809898772,1020,1019.9911986813385,627,94.91750109218185,1.282
510,11.96818916322051,1020,1019.9912085406557,599,74.82767393367338,1.283
506,11.80964653607264,1020,1019.9912184048738,572,55.047716790229266,1.284
497,11.501390656262508,1020,1019.9912282739164,546,35.875136328648416,1.285
489,11.223090578638365,1020,1019.9912381477073,523,17.585714337634265,1.286
487,11.196120493642868,1020,1019.9912480261709,501,0.4231076759580136,1.287
483,11.215436567147895,1020,1019.991257909231,483,-15.410347142328185,1.288
486,11.192306306184449,1020,1019.9912677968117,469,-29.760863693930244,1.289
498,11.247040761829224,1020,1019.9912776888376,457,-42.527870186591414,1.29
512,11.35745149267166,1020,1019.9912875852336,449,-53.66573056323217,1.291
517,11.28862041547472,1020,1019.9912974859252,443,-63.18239938326235,1.292
521,11.279882214808445,1020,1019.9913073908382,440,-71.13515028907962,1.293
530,11.237119367341288,1020,1019.9913172998989,440,-77.62376241725919,1.294
529,11.28267925901925,1020,1019.9913272130347,440,-82.78175341219034,1.295
530,11.424985882286256,1020,1019.9913371301731,440,-86.7663925976694,1.296
527,11.466403625647205,1020,1019.9913470512419,440,-89.74829885801938,1.297
524,11.451897563510016,1020,1019.9913569761687,440,-91.90141848456948,1.298
521,11.511274781398624,1020,1019.9913669048818,439,-93.39409244758973,1.299
514,11.49768119519566,1020,1019.9913768373098,435,-94.38177239291282,1.3
505,11.518294057749433,1020,1019.9913867733816,431,-95.00174752075702,1.301
504,11.43308845371358,1020,1019.9913967130273,425,-95.37002225622544,1.302
505,11.392232999144513,1020,1019.9914066561777,421,-95.58026349778045,1.303
497,11.409755285172132,1020,1019.9914166027646,417,-95.70454336404269,1.304
503,11.346866281945923,1020,1019.9914265527199,413,-95.79546052861906,1.305
502,11.207901470511276,1020,1019.9914365059752,410,-95.88914238635725,1.306
502,11.063285610385616,1020,1019.9914464624634,408,-96.0086139051819,1.307
512,11.008005811932371,1020,1019.991456422118,408,-96.16706341834069,1.308
513,11.03496430819986,1020,1019.991466384873,411,-96.3706328801194,1.309
515,10.93818264100749,1020,1019.9914763506634,414,-96.6204968922227,1.31
527,10.663532538667745,1020,1019.9914863194242,418,-96.914150967027,1.311
527,10.351706960018515,1020,1019.9914962910905,422,-97.24598013468719,1.312
523,10.176217053412977,1020,1019.991506265598,425,-97.60730002297323,1.313
518,9.980734727332099,1020,1019.9915162428822,425,-97.986136260382,1.314
518,9.823976147113646,1020,1019.9915262228785,425,-98.36702643495957,1.315
511,9.824814189151923,1020,1019.9915362055224,425,-98.73109464428255,1.316
505,9.9089160291098,1020,1019.9915461907492,422,-99.05657402463903,1.317
502,9.871169078331189,1020,1019.9915561784949,420,-99.31985427209021,1.318
494,9.832316527820655,1020,1019.9915661686953,418,-99.49702557869486,1.319
488,9.756081333816509,1020,1019.9915761612858,415,-99.56579221029523,1.32
493,9.681402289524433,1020,1019.991586156202,412,-99.50755032350081,1.321
501,9.48419283255865,1020,1019.99159615338,409,-99.30937454552569,1.322
504,9.375449720457805,1020,1019.9916061527558,409,-98.96564264872123,1.323
510,9.394494973195224,1020,1019.9916161542649,408,-98.4790515303866,1.324
516,9.39294587780395,1020,1019.9916261578421,410,-97.8608406931779,1.325
522,9.426078500405717,1020,1019.9916361634225,414,-97.13013497027416,1.326
529,9.302289791274225,1020,1019.9916461709406,418,-96.31243340721169,1.327
528,9.315914101181347,1020,1019.9916561803304,422,-95.43738849269249,1.328
525,9.464723339256802,1020,1019.9916661915256,425,-94.53612000395596,1.329
521,9.584424223858186,1020,1019.9916762044593,429,-93.63837416749197,1.33
519,9.870691405278878,1020,1019.9916862190651,431,-92.7698625611556,1.331
517,10.014675543333718,1020,1019.9916962352765,432,-91.95009489740433,1.332
514,10.042005290328136,1020,1019.9917062530274,432,-91.19095958336159,1.333
511,10.103741584791882,1020,1019.9917162722506,432,-90.49621386482141,1.334
511,10.172031195250709,1020,1019.9917262928795,430,-89.86193325181581,1.335
504,10.325612726401713,1020,1019.9917363148472,428,-89.27785157816159,1.336
496,10.427062587661668,1020,1019.9917463380868,425,-88.72941200225112,1.337
492,10.441585893143253,1020,1019.9917563625311,422,-88.2002581773901,1.338
494,10.474815027422652,1020,1019.9917663881126,419,-87.67483552772354,1.339
497,10.5508189023039,1020,1019.9917764147642,418,-87.14075499188252,1.34
506,10.5556022212141,1020,1019.991786442419,419,-86.59060172889654,1.341
514,10.588747869740997,1020,1019.9917964710096,422,-86.02294851480445,1.342
519,10.551414311112563,1020,1019.9918065004688,425,-85.4424482883121,1.343
525,10.454050843356825,1020,1019.9918165307292,430,-84.85901417817917,1.344
525,10.241994347984956,1020,1019.9918265617232,434,-84.28622553616306,1.345
519,10.086397788170183,1020,1019.9918365933825,436,-83.73920362923243,1.346
521,10.07661262136573,1020,1019.9918466256388,438,-83.23226541063042,1.347
524,10.145021532380957,1020,1019.9918566584236,439,-82.77668186246166,1.348
520,10.174356095356574,1020,1019.9918666916681,440,-82.3788420056688,1.349
515,10.228660234999134,1020,1019.9918767253037,441,-82.03906431754305,1.35
511,10.222669483471174,1020,1019.9918867592612,441,-81.75121439977438,1.351
503,10.201617150263054,1020,1019.9918967934716,440,-81.50318937749044,1.352
496,10.100110239452455,1020,1019.9919068278662,436,-81.27822207498254,1.353
491,10.072832158016205,1020,1019.9919168623762,433,-81.0568494221861,1.354
487,10.09548365975913,1020,1019.9919268969336,428,-80.81929220072549,1.355
495,10.163686763776791,1020,1019.99193693147,425,-80.5479236800482,1.356
499,10.169095074073613,1020,1019.9919469659169,424,-80.22947922186016,1.357
507,10.055070629847979,1020,1019.9919570002055,425,-79.85668773342663,1.358
515,10.027223046705508,1020,1019.9919670342676,428,-79.42908843307082,1.359
523,10.093160244079415,1020,1019.9919770680351,432,-78.95292002772918,1.36
531,10.101709756038007,1020,1019.9919871014401,436,-78.44011185125696,1.361
528,10.154190951570245,1020,1019.9919971344154,441,-77.90654217182274,1.362
524,10.170169920863254,1020,1019.9920071668937,444,-77.36983512653107,1.363
522,10.240112228946977,1020,1019.9920171988072,446,-76.84702892102116,1.364
518,10.258371769248606,1020,1019.9920272300885,448,-76.35245700449079,1.365
513,10.245252413228936,1020,1019.99203726067,448,-75.89614265005332,1.366
507,10.306147809255542,1020,1019.9920472904839,447,-75.4829246628816,1.367
507,10.302731171121033,1020,1019.9920573194624,445,-75.11242092324639,1.368
505,10.378859324612685,1020,1019.9920673475378,442,-74.77981230202741,1.369
496,10.399349838542008,1020,1019.9920773746423,439,-74.47730854922986,1.37
494,10.372172253904688,1020,1019.9920874007073,435,-74.19605646318303,1.371
498,10.436994311834919,1020,1019.992097425664,433,-73.92818340847451,1.372
503,10.466367589855878,1020,1019.9921074494439,432,-73.66864656274316,1.373
508,10.435740391901238,1020,1019.9921174719777,431,-73.4165848804123,1.374
516,10.44191691205435,1020,1019.992127493196,433,-73.17594405742685,1.375
522,10.402454653386268,1020,1019.9921375130282,437,-72.9552548678818,1.376
524,10.61687430240672,1020,1019.9921475314043,441,-72.76657642568549,1.377
528,10.739232478069189,1020,1019.9921575482538,446,-72.62374792567681,1.378
526,10.69674067324934,1020,1019.9921675635062,448,-72.54020249870977,1.379
526,10.556110690169014,1020,1019.9921775770911,449,-72.52666512893792,1.38
519,10.413325131235268,1020,1019.9921875889374,450,-72.58907276386083,1.381
513,10.310797208589628,1020,1019.9921975989748,450,-72.72702077054274,1.382
510,10.206044169556693,1020,1019.9922076071332,449,-72.93296683572703,1.383
516,10.1414523989205,1020,1019.992217613343,448,-73.19232504399271,1.384
512,10.229764742290111,1020,1019.9922276175341,445,-73.48447153337173,1.385
503,10.312721358504936,1020,1019.9922376196366,443,-73.78456973250546,1.386
495,10.32585458474026,1020,1019.99224761958,439,-74.06601846933286,1.387
490,10.287754374986138,1020,1019.9922576172937,434,-74.30324104244711,1.388
493,10.246375605713574,1020,1019.9922676127069,431,-74.47447842482728,1.389
499,10.22700370959469,1020,1019.9922776057481,430,-74.56423551055548,1.39
503,10.210913492013235,1020,1019.9922875963455,431,-74.56506328020025,1.391
515,10.18062265658471,1020,1019.9922975844272,432,-74.47844152750568,1.392
523,10.092698768326837,1020,1019.992307569921,435,-74.31464479669074,1.393
527,10.092090726410778,1020,1019.9923175527545,439,-74.0916089929019,1.394
524,10.22246196413133,1020,1019.9923275328554,443,-73.83294690320477,1.395
523,10.239063987101346,1020,1019.9923375101519,446,-73.56536910591093,1.396
523,10.250585722240373,1020,1019.9923474845716,448,-73.31583753292769,1.397
523,10.262320002785529,1020,1019.9923574560419,449,-73.10880309922014,1.398
521,10.337493580613966,1020,1019.9923674244894,450,-72.9638553766395,1.399
509,10.42319491087587,1020,1019.9923773898411,449,-72.89404810560941,1.4
500,10.345352580804459,1020,1019.9923873520231,448,-72.90507058831015,1.401
497,10.245284800641732,1020,1019.9923973109619,445,-72.99532406976465,1.402
499,10.260837088210087,1020,1019.9924072665833,442,-73.1568468311735,1.403
498,10.244443643676455,1020,1019.9924172188137,439,-73.37692524077825,1.404
495,10.217496840150027,1020,1019.9924271675789,435,-73.64014369614702,1.405
500,10.181946498032621,1020,1019.9924371128043,433,-73.93057556937676,1.406
505,10.174954887093604,1020,1019.9924470544158,431,-74.23380745132123,1.407
512,10.257560165421735,1020,1019.9924569923389,432,-74.53852262633666,1.408
520,10.306780552235654,1020,1019.9924669264985,433,-74.83744301585843,1.409
527,10.245858862631696,1020,1019.9924768568192,435,-75.12753113518744,1.41
532,10.313567256409145,1020,1019.9924867832258,439,-75.40946868723782,1.411
526,10.218330184141841,1020,1019.9924967056429,441,-75.68653789384871,1.412
522,10.117438418652524,1020,1019.992506623995,443,-75.96311853563013,1.413
521,10.085199585822298,1020,1019.9925165382067,444,-76.24306510982993,1.414
517,10.042331290931722,1020,1019.9925264482029,445,-76.52823842787443,1.415
511,9.931677567319984,1020,1019.9925363539085,444,-76.81743593822483,1.416
511,9.827914022578225,1020,1019.992546255248,444,-77.10590225105702,1.417
507,9.798342265955753,1020,1019.9925561521461,442,-77.38551544460746,1.418
498,9.722181561571302,1020,1019.9925660445267,439,-77.64564626812735,1.419
495,9.753290199435556,1020,1019.9925759323135,436,-77.87458735570483,1.42
493,9.916816708680177,1020,1019.99258581543,433,-78.06135984272302,1.421
497,10.028945930448275,1020,1019.9925956937998,429,-78.1976376612175,1.422
499,10.032129560093544,1020,1019.992605567347,427,-78.27949632045605,1.423
503,9.965134798949833,1020,1019.9926154359962,425,-78.30870073551615,1.424
511,9.888138517778428,1020,1019.9926252996722,428,-78.29329842338842,1.425
516,9.894765064478813,1020,1019.9926351583001,430,-78.24737635590762,1.426
525,9.831700959874581,1020,1019.9926450118048,433,-78.18995944740539,1.427
526,9.718758795652207,1020,1019.9926548601109,437,-78.14315580109874,1.428
525,9.735351610939299,1020,1019.9926647031427,440,-78.12976614158751,1.429
523,9.843870914717172,1020,1019.9926745408254,442,-78.1706544301362,1.43
519,9.87984334376907,1020,1019.9926843730839,443,-78.28221287325238,1.431
516,9.970918433933043,1020,1019.9926941998426,443,-78.47424436229595,1.432
515,10.166163872411571,1020,1019.9927040210262,443,-78.74853315879135,1.433
512,10.261961301677935,1020,1019.992713836559,442,-79.09829025441235,1.434
507,10.247121491690548,1020,1019.9927236463652,440,-79.50855515005678,1.435
507,10.149007430008275,1020,1019.9927334503693,437,-79.95752197463902,1.436
500,10.053643731041262,1020,1019.9927432484958,433,-80.41864539535872,1.437
491,10.052409489951133,1020,1019.9927530406687,428,-80.86328205971434,1.438
495,10.015084006771676,1020,1019.9927628268122,425,-81.2635493496467,1.439
504,10.011813258793943,1020,1019.9927726068511,422,-81.59504803458086,1.44
508,10.051042779457877,1020,1019.99278238071,421,-81.83910842559847,1.441
513,10.077034497768443,1020,1019.9927921483134,423,-81.98428288876183,1.442
519,10.082113543072005,1020,1019.9928019095862,425,-82.02691385232467,1.443
528,10.02674479079242,1020,1019.9928116644535,430,-81.97073997260725,1.444
532,9.97586309357601,1020,1019.9928214128402,434,-81.82564213357111,1.445
528,9.961333699838086,1020,1019.9928311546716,438,-81.60575175086213,1.446
523,9.89306430727408,1020,1019.9928408898734,440,-81.32722578288393,1.447
519,9.82047876448712,1020,1019.9928506183703,441,-81.00602291605956,1.448
517,9.652806296128558,1020,1019.9928603400874,441,-80.65599121828919,1.449
508,9.523250793898027,1020,1019.9928700549497,440,-80.2875073028709,1.45
503,9.589807512465445,1020,1019.992879762882,437,-79.90680598201978,1.451
502,9.616064480689893,1020,1019.9928894638094,435,-79.51602557384902,1.452
498,9.586543153302268,1020,1019.9928991576569,433,-79.11388546758029,1.453
492,9.650436271797174,1020,1019.9929088443494,432,-78.69682508530636,1.454
493,9.662015217755023,1020,1019.9929185238122,430,-78.26037781018178,1.455
495,9.72540976758611,1020,1019.992928195971,430,-77.80053366494775,1.456
495,9.856724842392218,1020,1019.9929378607515,429,-77.31485885353044,1.457
505,9.861672121103918,1020,1019.9929475180795,430,-76.80318447381825,1.458
519,9.86773328061102,1020,1019.9929571678806,432,-76.26774533088624,1.459
522,10.058237737767254,1020,1019.9929668100797,435,-75.7127355794494,1.46
527,10.290819223688862,1020,1019.9929764446017,439,-75.14334070335626,1.461
526,10.499490190481856,1020,1019.9929860713717,442,-74.56439175091903,1.462
520,10.51409667486782,1020,1019.9929956903145,444,-73.97885328052737,1.463
521,10.340123804925083,1020,1019.9930053013552,446,-73.38638951746191,1.464
519,10.195680938795327,1020,1019.9930149044183,447,-72.78224887292251,1.465
513,10.200552251785936,1020,1019.9930244994282,448,-72.15666777085924,1.466
511,10.215594685795358,1020,1019.9930340863095,447,-71.494928030049,1.467
510,10.23020576184655,1020,1019.9930436649868,447,-70.77811699462123,1.468
501,10.237020058694432,1020,1019.9930532353844,445,-69.98454605356768,1.469
496,10.209816309363111,1020,1019.9930627974275,443,-69.09169178072861,1.47
497,10.059299409340692,1020,1019.9930723510404,441,-68.07844573455856,1.471
501,9.889732413991538,1020,1019.9930818961482,440,-66.92740476771182,1.472
508,9.841990643950993,1020,1019.9930914326753,440,-65.62691274566151,1.473
510,9.770368910459437,1020,1019.9931009605459,440,-64.17258221134608,1.474
516,9.664869473400788,1020,1019.993110479684,443,-62.56808023504,1.475
518,9.652211399577649,1020,1019.9931199900136,446,-60.82505018359413,1.476
524,9.556391166817422,1020,1019.9931294914593,451,-58.96214971957985,1.477
530,9.588608418364382,1020,1019.9931389839455,457,-57.003300753309055,1.478
526,9.55246070807746,1020,1019.9931484673973,462,-54.97535263314853,1.479
527,9.482708641876238,1020,1019.9931579417391,466,-52.90543884467639,1.48
526,9.407023160747872,1020,1019.993167406896,469,-50.81834683040958,1.481
517,9.233965525524367,1020,1019.9931768627932,472,-48.73421471150056,1.482
508,8.97912908532889,1020,1019.9931863093559,473,-46.66682116225927,1.483
502,8.88608872272698,1020,1019.9931957465094,475,-44.62265538173812,1.484
496,8.84026725847329,1020,1019.9932051741796,475,-42.600855208887936,1.485
497,8.841815086855487,1020,1019.9932145922928,475,-40.59399479179137,1.486
500,8.81622791886158,1020,1019.9932240007754,474,-38.58959979266655,1.487
500,8.781378608775729,1020,1019.9932333995532,472,-36.57217836623981,1.488
503,8.797541303684365,1020,1019.9932427885522,472,-34.52549066007964,1.489
504,8.68488486988048,1020,1019.9932521676981,472,-32.43474845129088,1.49
508,8.604518808458886,1020,1019.9932615369169,473,-30.288446927981933,1.491
514,8.652470512222832,1020,1019.9932708961344,477,-28.07958374301999,1.492
520,8.677684616973824,1020,1019.9932802452765,481,-25.806110188852987,1.493
527,8.7102287991283,1020,1019.9932895842692,487,-23.47057294742286,1.494
525,8.68093035748189,1020,1019.9932989130377,492,-21.079024841521257,1.495
520,8.634174489962355,1020,1019.9933082315072,497,-18.63939019593681,1.496
521,8.660947314782604,1020,1019.9933175396025,503,-16.15954846196615,1.497
516,8.714282791155906,1020,1019.9933268372486,507,-13.645438398002922,1.498
512,8.858929254579493,1020,1019.9933361243704,510,-11.099480334599258,1.499
513,8.951530660635676,1020,1019.9933454008926,511,-8.519567046460224,1.5
508,8.880504419762245,1020,1019.9933546667401,513,-5.898791113440818,1.501
501,8.888904365165178,1020,1019.9933639218377,514,-3.2259708824813127,1.502
500,8.943965588506869,1020,1019.9933731661106,513,-0.4869240333050724,1.503
496,8.892633362069494,1020,1019.9933823994841,513,2.333667880498274,1.504
497,8.907070553056489,1020,1019.9933916218831,512,5.250046232834996,1.505
504,8.794483132603025,1020,1019.9934008332327,513,8.273110216934997,1.506
508,8.668899061370624,1020,1019.9934100334574,515,11.40841019510225,1.507
512,8.713455886504658,1020,1019.9934192224812,519,14.654678226070152,1.508
517,8.638583133733524,1020,1019.9934284002281,524,18.003101070792447,1.509
522,8.517838672308851,1020,1019.9934375666219,530,21.43743737828252,1.51
526,8.382663183300433,1020,1019.993446721586,537,24.93496413942667,1.511
524,8.345706902084878,1020,1019.9934558650441,543,28.468126726767345,1.512
521,8.411089433609762,1020,1019.9934649969202,548,32.006678754504904,1.513
515,8.457032931830692,1020,1019.9934741171385,553,35.52004436958552,1.514
515,8.504245862949604,1020,1019.9934832256224,558,38.97962097353422,1.515
515,8.55175820253214,1020,1019.9934923222957,561,42.36076237693007,1.516
513,8.502010888176578,1020,1019.9935014070822,563,45.64423457870139,1.517
508,8.594182225468767,1020,1019.9935104799067,565,48.81701062005722,1.518
502,8.660205263621954,1020,1019.9935195406931,567,51.87235732166661,1.519
498,8.692786025228255,1020,1019.993528589366,568,54.809253664045826,1.52
495,8.695240510309814,1020,1019.9935376258493,568,57.63125770068014,1.521
498,8.748165369864711,1020,1019.9935466500676,569,60.34499867926442,1.522
500,8.78812747705796,1020,1019.9935556619455,571,62.958507824524915,1.523
505,8.820551161635453,1020,1019.9935646614078,572,65.47961057138527,1.524
511,8.879783280767072,1020,1019.9935736483801,574,67.91458362177386,1.525
518,8.854439912422697,1020,1019.9935826227872,577,70.26723510473258,1.526
526,8.89404190096037,1020,1019.9935915845542,581,72.5385012949251,1.527
527,8.866258514465226,1020,1019.9936005336065,585,74.72657628431526,1.528
526,8.823358783469653,1020,1019.9936094698699,590,76.82751136411899,1.529
521,8.798719359905075,1020,1019.9936183932698,595,78.83615045055417,1.53
519,8.873066148486721,1020,1019.9936273037317,598,80.74721851401075,1.531
519,9.07071579354564,1020,1019.9936362011815,600,82.55636085049466,1.532
511,9.243250173949153,1020,1019.9936450855455,602,84.26094612942796,1.533
508,9.245173657032836,1020,1019.9936539567495,603,85.86049230138636,1.534
502,9.292677421151952,1020,1019.9936628147195,603,87.35664250238644,1.535
499,9.316505250569024,1020,1019.9936716593813,602,88.75269676372685,1.536
496,9.322133369829013,1020,1019.9936804906608,600,90.05278372147487,1.537
498,9.309916228561839,1020,1019.9936893084839,599,91.26082366149483,1.538
500,9.37239078133994,1020,1019.9936981127764,598,92.37947882010046,1.539
502,9.465202823114822,1020,1019.9937069034643,598,93.40929943320411,1.54
510,9.404476428817981,1020,1019.9937156804733,599,94.34825026754045,1.541
519,9.349256177698376,1020,1019.9937244437294,601,95.19174464252877,1.542
523,9.342218209409499,1020,1019.993733193159,605,95.93322961233214,1.543
529,9.381617314063469,1020,1019.9937419286882,609,96.56526998829959,1.544
525,9.40347807465094,1020,1019.993750650244,613,97.08098659661711,1.545
523,9.442179427406435,1020,1019.9937593577536,615,97.47563314866254,1.546
523,9.400629509114658,1020,1019.9937680511446,616,97.74806093675745,1.547
518,9.360717652177613,1020,1019.9937767303456,616,97.90182803133526,1.548
515,9.253897300416604,1020,1019.9937853952854,615,97.9457564929818,1.549
511,9.136149662337171,1020,1019.9937940458924,614,97.89381619898272,1.55
506,9.215106821109776,1020,1019.9938026820948,613,97.76430304807525,1.551
503,9.311704159730011,1020,1019.9938113038208,611,97.57836969480016,1.552
502,9.327641949079537,1020,1019.9938199109981,609,97.35804915872372,1.553
498,9.365523743519526,1020,1019.9938285035544,606,97.1239793126775,1.554
493,9.362376122895114,1020,1019.9938370814173,603,96.89308416266205,1.555
495,9.404315332849277,1020,1019.9938456445145,601,96.67649031477211,1.556
499,9.379404493735434,1020,1019.9938541927743,599,96.47794832379351,1.557
513,9.287283396159186,1020,1019.9938627261251,600,96.2929851198316,1.558
519,9.315481029631815,1020,1019.9938712444962,601,96.10893665494932,1.559
524,9.38140204268704,1020,1019.9938797478169,603,95.90590705308325,1.56
526,9.352910818762254,1020,1019.9938882360163,606,95.65858555317236,1.561
524,9.333921882761592,1020,1019.9938967090236,609,95.33874203241017,1.562
524,9.407664099580437,1020,1019.9939051667677,611,94.91813183703587,1.563
520,9.485922123881375,1020,1019.9939136091778,613,94.37148384941324,1.564
512,9.500493890804128,1020,1019.9939220361823,613,93.67923027331484,1.565
510,9.458175324631688,1020,1019.9939304477105,613,92.8296645875058,1.566
510,9.512569644496905,1020,1019.9939388436908,611,91.82028140527326,1.567
506,9.413924297419017,1020,1019.9939472240528,608,90.65814966239914,1.568
501,9.339880912796644,1020,1019.9939555887265,605,89.35928656713502,1.569
496,9.259700716831565,1020,1019.9939639376414,600,87.9471202379789,1.57
497,9.285239070582879,1020,1019.993972270727,594,86.45023961894549,1.571
500,9.32392735045786,1020,1019.9939805879128,590,84.89971733773298,1.572
505,9.307545424898436,1020,1019.9939888891283,586,83.32634211700817,1.573
511,9.366152537418891,1020,1019.9939971743031,583,81.75810274822122,1.574
515,9.406132144544632,1020,1019.9940054433662,582,80.21822259036726,1.575
523,9.421736890410978,1020,1019.9940136962466,583,78.72395741686834,1.576
526,9.326634422292289,1020,1019.9940219328735,585,77.28625266481676,1.577
529,9.285569429312165,1020,1019.9940301531763,588,75.91022662927729,1.578
525,9.355507951121044,1020,1019.9940383570845,590,74.5963253354345,1.579
523,9.393636415029118,1020,1019.9940465445281,590,73.341903731965,1.58
517,9.347490817623381,1020,1019.9940547154372,590,72.14294139992047,1.581
514,9.246534130845852,1020,1019.9940628697416,589,70.99560363189248,1.582
509,9.142197853004783,1020,1019.9940710073718,587,69.8974043856258,1.583
504,9.136393327431911,1020,1019.9940791282581,586,68.84780378746068,1.584
503,9.04123774406818,1020,1019.9940872323311,583,67.848165998085,1.585
499,8.973856761232494,1020,1019.9940953195212,580,66.90110161143816,1.586
492,9.060789019333532,1020,1019.9941033897592,576,66.00931252317945,1.587
493,9.187458172902566,1020,1019.9941114429755,571,65.17413701137589,1.588
499,9.11661292412194,1020,1019.9941194791011,568,64.39404833160353,1.589
503,9.078111532701032,1020,1019.9941274980672,566,63.66338093009299,1.59
507,9.168028751188057,1020,1019.9941354998052,565,62.971537036473904,1.591
513,9.149517758677028,1020,1019.9941434842469,566,62.302862763400526,1.592
519,9.201449952576574,1020,1019.9941514513246,568,61.637285625034714,1.593
524,9.203017493824147,1020,1019.9941594009704,571,60.951690169764895,1.594
526,9.15971700058858,1020,1019.994167333117,573,60.22189416302911,1.595
524,9.0986616229417,1020,1019.9941752476968,575,59.424993338779124,1.596
522,9.142376899129454,1020,1019.9941831446415,575,58.54178316252283,1.597
520,9.237099903911236,1020,1019.9941910238833,576,57.55894903257522,1.598
517,9.328620124224152,1020,1019.994198885355,575,56.47074152579621,1.599
512,9.419166286632342,1020,1019.9942067289892,573,55.27991449310774,1.6
511,9.400824483129805,1020,1019.9942145547182,571,53.99779207227144,1.601
