EMG_raw,EMG_processed,EDA_raw,EDA_processed,ECG_raw,ECG_processed,time_sec
506,1.1258327769269958,1000,1002.4030616091072,511,-9.740096184305383,0.0
506,1.2043129451068868,1000,1002.4077554862852,510,-10.51587627565084,0.001
504,1.2875875060735669,1000,1002.4124271375304,508,-11.26856316364114,0.002
507,1.3290408392661806,1001,1002.4170764308933,507,-11.97022104052889,0.003
511,1.3490059897568671,1000,1002.4217032342358,505,-12.596938492692157,0.004
515,1.3522912576313415,1000,1002.4263074152323,504,-13.13092526374865,0.005
515,1.3689743117567865,1001,1002.4308888413698,504,-13.562142998146024,0.006
511,1.4125090172803114,1000,1002.435447379949,503,-13.88934213353479,0.007
508,1.4666941378153893,1000,1002.4399828980845,502,-14.12041856323687,0.008
507,1.5087454174259705,1000,1002.4444952627055,502,-14.272052884799756,0.009
510,1.541561235184036,1000,1002.4489843405559,503,-14.368649701248605,0.01
512,1.5424761488251684,1000,1002.453449998196,505,-14.440653062453096,0.011
512,1.550022000726531,1001,1002.4578921020034,507,-14.522373518497856,0.012
511,1.56527644752266,1000,1002.4623105181731,509,-14.649515207474183,0.013
512,1.5778874174672235,1000,1002.4667051127185,511,-14.85662807214555,0.014
511,1.6065079616675615,1000,1002.4710757514713,511,-15.174721930205264,0.015
509,1.6738635191183169,1000,1002.4754223000832,511,-15.629261019079463,0.016
508,1.7856268879560384,1000,1002.4797446240259,510,-16.238710417460716,0.017
510,1.9336113134481492,1000,1002.4840425885914,508,-17.013735119289265,0.018
515,1.9672846669379103,1000,1002.4883160588929,504,-17.95706772743907,0.019
519,2.017766255106162,1000,1002.492564899866,499,-19.063972806677395,0.02
515,2.0835219910143765,1000,1002.4967889762684,495,-20.32315758089309,0.021
514,2.1716617610235525,1000,1002.5009881526812,492,-21.717923994077154,0.022
512,2.237944542331137,1000,1002.5051622935093,490,-23.227338458434918,0.023
511,2.323268206778745,1000,1002.509311262982,488,-24.82721802736001,0.024
508,2.3707356320181505,1000,1002.5134349251543,489,-26.49079080042163,0.025
508,2.3863231356464403,1000,1002.5175331439073,491,-28.188972258263625,0.026
510,2.3907515233005405,1000,1002.5216057829484,491,-29.890292029571714,0.027
511,2.3361914268800983,1000,1002.5256527058127,492,-31.560589473137732,0.028
512,2.341806566711922,1000,1002.5296737758626,492,-33.1626550866903,0.029
511,2.2943363361215536,1000,1002.5336688562898,492,-34.656018197790786,0.03
510,2.205160269032619,1000,1002.5376378101155,491,-35.997067855682715,0.031
509,2.1139421370102283,1000,1002.5415805001926,487,-37.1396472602088,0.032
510,2.1012906254048644,1000,1002.5454967892051,484,-38.036190240931056,0.033
510,2.1182132457860305,1000,1002.5493865396688,480,-38.63938367223543,0.034
512,2.125562934195482,1000,1002.5532496139317,478,-38.90425907228142,0.035
512,2.1990846606277086,1000,1002.5570858741753,479,-38.79055672617079,0.036
511,2.19951063079132,999,1002.5608951824156,481,-38.26517653082069,0.037
511,2.181061246684367,1000,1002.5646774005036,483,-37.30453018213502,0.038
513,2.177097447919916,999,1002.568432390125,483,-35.8966278479797,0.039
515,2.2143650764161564,999,1002.5721600128022,483,-34.042754684851616,0.04
517,2.217035872980691,999,1002.575860129894,483,-31.758610823734198,0.041
519,2.185240873372167,999,1002.5795326025964,486,-29.074806324520722,0.042
513,2.185106946812304,1000,1002.5831772919441,490,-26.036630061587186,0.043
509,2.1889016748469654,999,1002.5867940588109,495,-22.703055338231795,0.044
508,2.156134623669827,999,1002.5903827639104,499,-19.14500253125999,0.045
507,2.023045834079004,999,1002.5939432677969,504,-15.442939786443553,0.046
508,1.9966402209131466,999,1002.5974754308663,509,-11.683955524464976,0.047
507,1.9634305066752287,999,1002.6009791133561,514,-7.958474542787335,0.048
509,1.9663946421762708,999,1002.6044541753458,518,-4.356810356803929,0.049
512,1.9542737523374327,999,1002.6079004767598,522,-0.9657494133318897,0.05
512,1.9203257134202356,999,1002.6113178773667,524,2.134651690656496,0.051
511,1.8499034920017545,999,1002.6147062367813,526,4.873904262408159,0.052
511,1.8255343344694024,999,1002.618065414465,527,7.193448032494594,0.053
512,1.807607155874888,999,1002.6213952697262,529,9.048462369276454,0.054
514,1.8331225815750314,999,1002.6246956617215,531,10.409092534787172,0.055
513,1.8169565929077853,999,1002.6279664494555,532,11.261082810781952,0.056
513,1.8012304780000699,999,1002.6312074917828,532,11.605828414521266,0.057
513,1.7471114902554858,999,1002.634418647408,531,11.459875167209631,0.058
514,1.7520304081922844,999,1002.6375997748869,529,10.853913034974562,0.059
515,1.7762349404443936,999,1002.6407507326276,528,9.831325969438113,0.06
513,1.7873109016274111,999,1002.6438713788912,527,8.446371795578779,0.061
512,1.827390029898797,999,1002.6469615717924,526,6.762068709469891,0.062
511,1.8822338992829237,999,1002.650021169301,525,4.847859746850267,0.063
509,1.9423666285658698,999,1002.6530500292411,524,2.7771181437872396,0.064
510,1.9254888698082806,999,1002.6560480092926,522,0.6245512506065013,0.065
511,2.0006235365243348,999,1002.6590149669919,519,-1.5364364031903925,0.066
507,1.9219442492425598,999,1002.6619507597325,516,-3.636347487973679,0.067
510,1.7923565935564039,999,1002.6648552447659,512,-5.61207028825107,0.068
508,1.832654960739996,998,1002.6677282792025,509,-7.409117217425078,0.069
512,1.8072499251538432,999,1002.6705697200118,507,-8.983496894790077,0.07
508,1.7868374732158943,999,1002.6733794240245,505,-10.303095565323959,0.071
512,1.7666697288143371,999,1002.6761572479322,504,-11.348463841588108,0.072
510,1.7251940004353297,999,1002.6789030482896,504,-12.112941129651531,0.073
511,1.6698695856152357,999,1002.6816166815147,504,-12.602097818495475,0.074
513,1.6871463917532112,998,1002.6842980038896,504,-12.832528333324849,0.075
512,1.7201598022012896,999,1002.6869468715613,506,-12.830080526988462,0.076
512,1.7346183205814627,998,1002.6895631405432,508,-12.627653474467776,0.077
511,1.7436065692050589,998,1002.6921466667159,509,-12.262732021186785,0.078
510,1.801810322482281,998,1002.694697305828,510,-11.774847734820156,0.079
511,1.8256561973671723,998,1002.6972149134963,512,-11.203158331776455,0.08
513,1.8262916109127234,999,1002.6996993452067,513,-10.584320360662883,0.081
511,1.7848319331150133,998,1002.7021504563154,512,-9.950795205204813,0.082
514,1.8583114307557835,999,1002.7045681020495,512,-9.329679964196089,0.083
514,1.9044578513858268,998,1002.7069521375083,511,-8.742097643132006,0.084
511,1.9322982554955308,998,1002.7093024176643,511,-8.203123093472378,0.085
509,2.007106193952318,998,1002.7116187973629,510,-7.722170769160452,0.086
508,2.129888280388266,998,1002.7139011313238,509,-7.303733589534995,0.087
508,2.2530004884470487,998,1002.716149274142,509,-6.948341626433029,0.088
512,2.3125164964185303,998,1002.7183630802892,510,-6.653605738578196,0.089
519,2.3027336524487363,998,1002.7205424041149,510,-6.4152239381698255,0.09
513,2.343787376801295,998,1002.7226870998466,510,-6.227853829858594,0.091
513,2.4298526968252356,998,1002.7247970215913,511,-6.085787277200534,0.092
515,2.488402144429918,998,1002.7268720233355,512,-5.983398279451726,0.093
511,2.4931354523968308,998,1002.7289119589468,512,-5.915368492058481,0.094
509,2.466383142195105,998,1002.7309166821742,513,-5.876724231257096,0.095
509,2.4922502878816006,998,1002.7328860466491,514,-5.862741487942341,0.096
510,2.5382957342255503,998,1002.7348199058861,515,-5.868789468385965,0.097
511,2.58550533975224,998,1002.7367181132836,515,-5.890187169951363,0.098
508,2.5837297155798744,998,1002.7385805221261,515,-5.922140199836632,0.099
510,2.6449701042527134,998,1002.7404069855838,515,-5.959806070198679,0.1
510,2.693901286796412,998,1002.7421973567143,513,-5.998507599343329,0.101
512,2.7595195687504384,998,1002.7439514884641,512,-6.034080336649269,0.102
508,2.794011717452143,998,1002.7456692336691,511,-6.063307197005907,0.103
510,2.809960531826025,998,1002.7473504450554,510,-6.084368418175856,0.104
509,2.851927074536457,998,1002.7489949752403,510,-6.097223007892681,0.105
512,3.0471940200481282,998,1002.7506026767337,510,-6.103841185769315,0.106
517,3.172026604529714,998,1002.7521734019397,509,-6.108224420708985,0.107
516,3.2274716269433816,998,1002.7537070031558,510,-6.116176875160464,0.108
516,3.1867712332871907,998,1002.7552033325751,511,-6.13482556810135,0.109
519,3.2127126693800903,998,1002.7566622422869,512,-6.171922875150676,0.11
520,3.286423212205822,998,1002.7580835842773,513,-6.234999776687055,0.111
518,3.319087596891222,998,1002.7594672104301,514,-6.330465863109368,0.112
515,3.274082431558138,998,1002.7608129725281,515,-6.462767188092484,0.113
509,3.24402933145598,998,1002.7621207222542,515,-6.633712503886406,0.114
509,3.28838524295801,998,1002.763390311191,514,-6.842061495150301,0.115
506,3.1711398898063794,998,1002.7646215908235,513,-7.0834369889658975,0.116
505,3.1398588227222093,998,1002.7658144125394,512,-7.350581362571901,0.117
509,3.134555960174593,998,1002.7669686276299,511,-7.633932603959153,0.118
510,3.0993615849794014,998,1002.7680840872908,509,-7.922454907889284,0.119
510,3.106756609612041,998,1002.7691606426233,508,-8.204627441536466,0.12
506,3.0965164115227384,998,1002.7701981446348,507,-8.469476111825415,0.121
509,3.0812682394254374,998,1002.771196444241,506,-8.70752887350054,0.122
510,3.0677641391285047,998,1002.7721553922665,506,-8.91158610937324,0.123
515,3.071210138290992,998,1002.7730748394456,506,-9.077222621971469,0.124
515,3.034490214859005,998,1002.7739546364232,507,-9.202973541777862,0.125
515,3.009803537962744,998,1002.7747946337558,508,-9.290198206237525,0.126
513,2.9899720959670537,998,1002.7755946819129,509,-9.342657853634691,0.127
510,2.986506997118378,998,1002.7763546312776,510,-9.365878459361719,0.128
507,2.9335989835656577,998,1002.7770743321475,510,-9.366393872398088,0.129
501,2.8940171097281198,998,1002.7777536347367,511,-9.350973642508917,0.13
503,2.84840138493041,998,1002.7783923891757,511,-9.325934534165869,0.131
508,2.862254818477963,998,1002.778990445513,511,-9.296616800308827,0.132
511,2.7698840263996005,998,1002.7795476537158,510,-9.267078747822547,0.133
515,2.6902083028723105,998,1002.7800638636709,509,-9.240029313778376,0.134
515,2.6150441024381608,997,1002.7805389251857,508,-9.21698275749575,0.135
515,2.4699036104436485,998,1002.7809726879896,508,-9.19858779471519,0.136
512,2.316440522695491,998,1002.7813650017351,507,-9.18506069902349,0.137
509,2.19798572173308,997,1002.7817157159993,506,-9.176640713186533,0.138
508,2.1619885773117127,998,1002.7820246802844,506,-9.173986570820496,0.139
510,2.134373797919175,997,1002.7822917440194,506,-9.178444139855538,0.14
511,2.1153411335626124,998,1002.7825167565611,507,-9.192136200026228,0.141
512,2.089046067633873,998,1002.7826995671944,507,-9.217853893054555,0.142
513,2.0364735992731497,998,1002.7828400251337,508,-9.258761002134865,0.143
513,2.006098683463029,998,1002.7829379795244,508,-9.317951690195981,0.144
513,2.0594349440592783,998,1002.782993279443,509,-9.397925689894429,0.145
514,2.1062775064560055,997,1002.7830057738988,510,-9.500060103596457,0.146
512,2.0321643486353085,998,1002.7829753118349,511,-9.624162738655693,0.147
513,1.989713738882644,998,1002.7829017421295,511,-9.768186739735144,0.148
513,2.0001498162069216,998,1002.782784913597,510,-9.928168398292645,0.149
510,1.950889095097002,997,1002.7826246749883,508,-10.098419337850574,0.15
512,1.8580054771153558,997,1002.7824208749926,507,-10.271964782099147,0.151
511,1.8243812558329422,998,1002.7821733622386,506,-10.441179431068983,0.152
511,1.854908038074889,997,1002.7818819852955,505,-10.598540599886917,0.153
511,1.9208309921119706,998,1002.7815465926733,504,-10.73740052060769,0.154
512,1.9343509883790606,997,1002.7811670328242,504,-10.852677371251238,0.155
512,1.821613802946942,997,1002.7807431541441,504,-10.941376173233836,0.156
511,1.73455936584385,998,1002.7802748049739,504,-11.002873527919402,0.157
511,1.7015018433144857,997,1002.7797618336008,504,-11.038930666498125,0.158
512,1.7093923589148452,998,1002.7792040882587,505,-11.053433380128421,0.159
511,1.6443336241513782,997,1002.7786014171288,506,-11.051891482019295,0.16
511,1.6134949069468396,997,1002.7779536683415,507,-11.040761410662677,0.161
512,1.6114671628779373,998,1002.7772606899771,508,-11.026679822340713,0.162
513,1.6426060018161752,997,1002.7765223300671,509,-11.015709530160537,0.163
512,1.6388703862954646,997,1002.7757384365955,509,-11.012698846204522,0.164
510,1.6406885634517288,997,1002.7749088574992,509,-11.020840243809044,0.165
507,1.695687445316315,997,1002.7740334406699,508,-11.04148565550131,0.166
508,1.7335490705910024,997,1002.7731120339549,507,-11.074237498962532,0.167
510,1.7426216361146947,997,1002.7721444851591,505,-11.117292621929382,0.168
508,1.7252740010619398,997,1002.7711306420451,504,-11.167977870312708,0.169
507,1.7172880582748504,997,1002.7700703523346,504,-11.223387845128059,0.17
512,1.7055536508879825,997,1002.7689634637095,503,-11.28102261763925,0.171
511,1.6660675900067587,997,1002.7678098238121,503,-11.339326945018044,0.172
512,1.6890396393225262,997,1002.7666092802469,503,-11.398050274913622,0.173
512,1.68707523102377,997,1002.7653616805819,504,-11.458374257552268,0.174
511,1.6703823218811586,996,1002.7640668723498,503,-11.522787396275987,0.175
513,1.6539370560752975,997,1002.7627247030496,504,-11.59472093703884,0.176
515,1.6602606361088523,997,1002.7613350201473,505,-11.677992777968157,0.177
515,1.6640684600172777,997,1002.7598976710779,507,-11.776134716658094,0.178
515,1.713199462599653,997,1002.7584125032454,508,-11.891700032176436,0.179
515,1.8588677367653437,997,1002.7568793640244,508,-12.025658513998408,0.18
514,1.914094833014777,997,1002.7552981007611,508,-12.176979449637805,0.181
512,1.9078127443439905,996,1002.7536685607747,507,-12.342478074720809,0.182
510,1.8962297760318085,997,1002.7519905913587,505,-12.516961299382356,0.183
510,1.902994651159612,997,1002.750264039782,504,-12.693661829479751,0.184
508,1.93226382134052,996,1002.7484887532901,502,-12.864905127083853,0.185
507,1.9335972778080863,996,1002.746664579106,502,-13.022919241543356,0.186
508,1.9420346595637301,996,1002.7447913644314,501,-13.16067888310653,0.187
509,1.9386445543079198,997,1002.7428689564485,501,-13.272673590387873,0.188
508,1.926620958170272,997,1002.7408972023209,501,-13.355503092104717,0.189
507,1.9778317628309483,996,1002.7388759491946,500,-13.408226751282731,0.19
509,2.0848037969541178,997,1002.7368050441996,501,-13.432424280310373,0.191
510,2.0741651601722855,996,1002.7346843344503,501,-13.431958966177914,0.192
510,2.0385135490928707,997,1002.7325136670474,503,-13.412470470028156,0.193
510,2.049790019150209,996,1002.730292889079,504,-13.380659068619483,0.194
510,2.012434258967859,997,1002.7280218476217,505,-13.343452302922886,0.195
512,1.943886945174239,996,1002.7257003897412,506,-13.30716275322254,0.196
513,1.9614791870133481,996,1002.7233283624942,506,-13.276747835537625,0.197
513,1.9717579147030864,996,1002.7209056129291,506,-13.255268048338955,0.198
512,2.0480872927627316,996,1002.718431988088,505,-13.243611222055316,0.199
511,2.20162497193835,996,1002.7159073350076,504,-13.240511734166033,0.2
511,2.3544859208583175,997,1002.7133315007204,503,-13.242851623170235,0.201
511,2.411999942502617,996,1002.7107043322558,502,-13.246191845595757,0.202
515,2.3434314644441656,996,1002.7080256766412,501,-13.245452438183307,0.203
519,2.2646491693587754,996,1002.7052953809039,501,-13.235643845490584,0.204
515,2.18671218282363,996,1002.7025132920717,500,-13.212549480231253,0.205
511,2.216811692138058,996,1002.6996792571745,501,-13.17327088681953,0.206
512,2.2973062767742127,996,1002.6967931232457,501,-13.116569206087679,0.207
512,2.4075102309994074,996,1002.6938547373234,501,-13.042966343951006,0.208
514,2.4591511741699854,996,1002.6908639464514,502,-12.954602164270083,0.209
511,2.494508863882227,997,1002.6878205976809,504,-12.85487636204157,0.21
513,2.4855227455389994,996,1002.6847245380718,504,-12.747932181289508,0.211
512,2.4218719384635543,997,1002.6815756146934,505,-12.638060242956481,0.212
511,2.392290694370057,996,1002.6783736746256,506,-12.529110705234093,0.213
508,2.3568773573784143,996,1002.67511856496,506,-12.423998839256331,0.214
505,2.310821283769636,997,1002.6718101328015,506,-12.324373520214728,0.215
508,2.2716770978907053,996,1002.6684482252695,505,-12.23049230607106,0.216
510,2.2421255572743686,996,1002.6650326894992,504,-12.141314086519946,0.217
510,2.237576553730079,996,1002.6615633726428,503,-12.054785878778613,0.218
510,2.245009124636322,996,1002.6580401218703,503,-11.968270528966844,0.219
511,2.25313929921023,996,1002.6544627843705,502,-11.879042240302994,0.22
513,2.298491968387469,996,1002.6508312073543,502,-11.784769579223335,0.221
512,2.3313248763466885,996,1002.6471452380547,502,-11.683910511402397,0.222
516,2.4467305490172646,996,1002.6434047237285,502,-11.575959069668325,0.223
520,2.554020889202698,996,1002.6396095116565,503,-11.46150593529445,0.224
519,2.6936199698623833,996,1002.635759449146,503,-11.342102575250568,0.225
516,2.7964434112759347,996,1002.6318543835309,504,-11.219947194661179,0.226
512,2.853085284735947,996,1002.6278941621745,505,-11.09743720883848,0.227
511,2.9955643467773583,996,1002.6238786324698,506,-10.976654261051076,0.228
511,3.1820130578713184,996,1002.6198076418414,507,-10.858861423391192,0.229
505,3.2230348808328,996,1002.615681037747,507,-10.744095669819652,0.23
504,3.316765887377119,996,1002.611498667678,508,-10.630930291401539,0.231
504,3.3985842530016805,996,1002.6072603791608,508,-10.516461671680231,0.232
508,3.436405160974685,996,1002.6029660197587,507,-10.396544611340325,0.233
508,3.5473577142732085,996,1002.5986154370721,505,-10.266263279083674,0.234
509,3.5937516154215325,996,1002.5942084787398,504,-10.120585610151549,0.235
510,3.6240477655357695,996,1002.58974499244,503,-9.95511477173345,0.236
510,3.611565301165706,996,1002.5852248258925,503,-9.766830265357,0.237
511,3.6282818818381286,996,1002.5806478268591,503,-9.554708492559314,0.238
512,3.644751773057126,996,1002.5760138431456,504,-9.320127942152507,0.239
513,3.5898806359402045,996,1002.5713227226029,504,-9.066992942109659,0.24
512,3.455267239343752,996,1002.566574313129,504,-8.801545904064854,0.241
512,3.4235898948538495,997,1002.5617684626695,505,-8.531875882422586,0.242
513,3.441716194448988,996,1002.5569050192198,507,-8.267168091802265,0.243
513,3.4731857001946915,996,1002.5519838308255,509,-8.016773034708178,0.244
515,3.526206758568281,997,1002.5470047455842,510,-7.789201751674789,0.245
514,3.621768307356216,996,1002.5419676116471,511,-7.591169550530795,0.246
519,3.7656593350952856,996,1002.53687227722,511,-7.4268089504923545,0.247
519,3.9956685544861177,996,1002.5317185905642,510,-7.297152243035813,0.248
519,4.29106701805709,996,1002.5265063999977,510,-7.199948878048057,0.249
518,4.442612008045559,997,1002.5212355538974,510,-7.129839851084606,0.25
508,4.467392211777065,996,1002.5159059007005,508,-7.078867644591764,0.251
505,4.78245186559439,997,1002.5105172889056,507,-7.037261309780631,0.252
499,5.213043806316825,996,1002.5050695670737,507,-6.9944053991573085,0.253
503,5.433641534969792,996,1002.4995625838304,506,-6.939881834976948,0.254
504,5.533267518719974,996,1002.4939961878657,505,-6.864467923647908,0.255
508,5.545967089620276,996,1002.4883702279357,506,-6.760981801328179,0.256
510,5.8555532915733,996,1002.4826845528631,506,-6.624886829421797,0.257
506,6.4818791489092735,996,1002.4769390115401,506,-6.454596187250668,0.258
508,7.315934158831016,996,1002.4711334529292,507,-6.251454540963858,0.259
510,8.137881165656676,996,1002.4652677260636,508,-6.0194110874350955,0.26
512,8.857640993985767,996,1002.4593416800502,510,-5.764433944206216,0.261
513,9.338497998738767,996,1002.4533551640696,511,-5.493746398212352,0.262
514,9.424155785553687,997,1002.4473080273777,512,-5.21498663243678,0.263
512,9.560685160935385,996,1002.4412001193076,513,-4.935399923751863,0.264
512,9.829279924441249,996,1002.4350312892715,513,-4.661163883433481,0.265
513,10.080205894153892,996,1002.4288013867612,512,-4.396924255478799,0.266
514,10.342759289073152,996,1002.4225102613499,512,-4.145585000398501,0.267
514,10.60670490351343,997,1002.4161577626932,511,-3.90835779576372,0.268
515,10.802078626350852,996,1002.4097437405306,511,-3.6850394244122926,0.269
516,10.979477984452828,996,1002.403268044687,510,-3.474456290923481,0.27
519,11.08599969398436,996,1002.3967305250734,510,-3.274996390406511,0.271
523,11.198448590274705,996,1002.3901310316891,509,-3.085141255756645,0.272
529,11.214842315670627,997,1002.3834694146225,509,-2.9039137011166507,0.273
527,11.203923851785266,996,1002.376745524053,510,-2.731171237989063,0.274
518,11.130355761178555,997,1002.3699592102524,510,-2.567698790539237,0.275
531,11.076582217560329,996,1002.363110323586,510,-2.415085076404653,0.276
531,11.097569977387524,997,1002.3561987145143,512,-2.2754006076987263,0.277
521,10.996331875933066,997,1002.349224233595,514,-2.150727545804894,0.278
514,10.789695872272882,996,1002.3421867314836,515,-2.042618628708366,0.279
503,10.681730155800539,997,1002.3350860589352,516,-1.9515788796384996,0.28
486,10.567354177571184,996,1002.3279220668054,515,-1.876664171401667,0.281
471,10.49797380693337,997,1002.3206946060517,515,-1.8152727498025119,0.282
464,10.5001899462227,997,1002.3134035277347,514,-1.7631731410398348,0.283
465,10.498711314365199,996,1002.3060486830199,513,-1.7147721856409823,0.284
471,10.516216905444399,997,1002.2986299231787,512,-1.6635883714243167,0.285
484,10.541942436154622,996,1002.2911470995904,511,-1.602864452574316,0.286
504,10.555520720557807,996,1002.2836000637434,511,-1.5262337174820784,0.287
516,10.568422340100097,997,1002.2759886672369,511,-1.4283483934739583,0.288
524,10.57029818498501,996,1002.2683127617823,511,-1.3053862824913123,0.289
524,10.614690958086209,997,1002.2605721992048,511,-1.1553700269841745,0.29
524,10.7079447254234,997,1002.2527668314441,511,-0.9782584766714869,0.291
524,10.683307376456401,997,1002.2448965105567,512,-0.7757982656628083,0.292
522,10.704042073783821,997,1002.2369610887166,513,-0.5511539783563429,0.293
521,10.730021401871303,997,1002.2289604182164,515,-0.3083652037698758,0.294
520,10.69536300325669,998,1002.2208943514696,516,-0.051704796284065796,0.295
519,10.65164889575317,997,1002.2127627410122,516,0.21497024096235862,0.296
520,10.480112869913743,997,1002.2045654395027,518,0.48878001256708553,0.297
518,10.242513226804896,997,1002.1963022997251,518,0.7682107415227702,0.298
516,9.913710754733387,997,1002.1879731745888,517,1.0532710438577655,0.299
515,9.657319197976541,997,1002.179577917132,516,1.3453887323346851,0.3
517,9.543474145703376,997,1002.1711163805215,516,1.6470602977937545,0.301
515,9.14516581422127,997,1002.1625884180552,515,1.9613023173680628,0.302
515,8.751740368016398,997,1002.1539938831623,515,2.2909823407070955,0.303
517,8.54900592252605,997,1002.1453326294062,515,2.6381224368669027,0.304
515,8.477073632450645,997,1002.1366045104854,515,3.003271297852748,0.305
514,8.365305532003205,998,1002.127809380236,515,3.385032261886892,0.306
511,7.927996560682332,997,1002.1189470926323,515,3.779817076275406,0.307
507,7.19691887229634,997,1002.1100175017881,515,4.181870643517907,0.308
508,6.299248388808886,997,1002.1010204619587,517,4.583581642433633,0.309
510,5.432890002783359,997,1002.0919558275417,518,4.976059047632137,0.31
512,4.701664809328438,997,1002.0828234530785,520,5.349918167200127,0.311
511,4.25752161148492,998,1002.0736231932555,521,5.696187355913141,0.312
511,4.156602273245695,997,1002.0643549029063,523,6.0072244176714085,0.313
510,4.049070785749385,998,1002.0550184370126,523,6.277524623058319,0.314
508,3.7774807561386936,998,1002.0456136507049,524,6.504312135670032,0.315
512,3.519925456108178,997,1002.0361403992655,524,6.687832684347783,0.316
509,3.274420658612676,998,1002.0265985381287,522,6.831304474866898,0.317
508,3.076265531202695,997,1002.0169879228831,521,6.940531541247436,0.318
510,2.9053437605962644,997,1002.0073084092726,519,7.0232319257323494,0.319
509,2.6969593947882857,998,1001.997559853198,519,7.088173588313551,0.32
512,2.553983394637191,997,1001.9877421107183,518,7.144235888978759,0.321
512,2.43601574388321,997,1001.9778550380513,518,7.199520029018672,0.322
515,2.2795922383036085,998,1001.9678984915756,518,7.260619209163045,0.323
515,2.171997056947307,997,1001.9578723278321,518,7.332132731520107,0.324
515,2.1403253358378596,997,1001.9477764035257,519,7.416472660628009,0.325
512,2.0824430906616573,998,1001.9376105755271,520,7.51397138130542,0.326
509,1.9934839362861285,998,1001.9273747008731,521,7.62325779922124,0.327
512,1.964045999920395,998,1001.917068636769,523,7.741833780487837,0.328
513,1.924447303798852,998,1001.9066922405893,524,7.866755703143017,0.329
510,1.8615479403014867,998,1001.8962453698789,524,7.9953131424701995,0.33
512,1.8305661549426588,998,1001.8857278823555,524,8.125600465379948,0.331
512,1.8892982743793547,998,1001.875139635911,524,8.256896958287783,0.332
511,1.9403995300333443,998,1001.8644804886123,524,8.389802792397726,0.333
511,1.8781673305322826,998,1001.8537502987031,523,8.526115575370582,0.334
509,1.8117361088724988,997,1001.8429489246053,522,8.66847025079264,0.335
508,1.7714331535021306,998,1001.8320762249211,521,8.819799724488828,0.336
510,1.8357739787646814,998,1001.8211320584344,520,8.982700754053175,0.337
509,1.827876463098135,998,1001.8101162841124,520,9.15880500100457,0.338
510,1.8663855885208496,998,1001.7990287611067,520,9.34825571035619,0.339
509,1.8375499446484078,998,1001.7878693487553,519,9.549376057971028,0.34
509,1.7485130061515313,998,1001.7766379065836,521,9.758588241324263,0.341
515,1.7634541221549271,998,1001.7653342943065,522,9.970606625212847,0.342
513,1.6980830962510107,998,1001.7539583718296,523,10.178888192046161,0.343
511,1.6253773028517995,997,1001.7425099992513,524,10.376285030367784,0.344
512,1.5912811864819998,998,1001.7309890368635,526,10.555813037657,0.345
513,1.5458604833178233,998,1001.7193953451535,526,10.711433092065581,0.346
511,1.5476612499089046,998,1001.7077287848058,527,10.838737772230548,0.347
512,1.5673614957360549,998,1001.6959892167026,527,10.93544857228758,0.348
513,1.5742575929544718,998,1001.684176501926,526,11.001654010400607,0.349
511,1.5500449572969335,998,1001.6722905017598,526,11.039754489975307,0.35
511,1.4929522868157425,997,1001.6603310776911,524,11.054120025684023,0.351
512,1.4864458260294588,998,1001.6482980914118,523,11.05050601314983,0.352
511,1.4444072748198944,998,1001.63619140482,523,11.035304188758058,0.353
512,1.4259915769210405,998,1001.6240108800209,522,11.014726008225256,0.354
511,1.4027190455888123,998,1001.6117563793284,522,10.994021619462217,0.355
507,1.4068743554830045,998,1001.5994277652663,521,10.97683034376495,0.356
507,1.4020030986932628,998,1001.5870249005703,521,10.964740792065395,0.357
508,1.3950653507392665,998,1001.574547648189,522,10.957112744066302,0.358
510,1.409398146008769,998,1001.5619958712851,523,10.951180534319807,0.359
510,1.4168795968918204,998,1001.5493694332378,523,10.94242202791061,0.36
516,1.4019515471620858,998,1001.536668197643,524,10.925143428086685,0.361
513,1.3970167877547863,998,1001.5238920283165,525,10.893203293109996,0.362
508,1.4076697657936146,998,1001.511040789294,526,10.840782287266578,0.363
510,1.3842014619324496,998,1001.4981143448341,526,10.7630996868115,0.364
512,1.431288660162866,998,1001.4851125594188,526,10.6569845527246,0.365
513,1.445371601590512,998,1001.4720352977548,526,10.521228999409834,0.366
512,1.4326045158682639,998,1001.4588824247754,525,10.356681134594025,0.367
511,1.382276419524683,998,1001.4456538056417,523,10.16607196981777,0.368
511,1.3759384054717072,998,1001.4323493057447,522,9.95360879894345,0.369
511,1.4207446762059603,998,1001.4189687907061,521,9.72440129705351,0.37
512,1.4201319589950283,998,1001.4055121263801,520,9.483809887138332,0.371
513,1.446821714257213,998,1001.3919791788554,519,9.236814821146028,0.372
515,1.6075236935702644,998,1001.3783698144567,519,8.987498422808745,0.373
514,1.7563704980839405,998,1001.3646838997457,519,8.738713967616405,0.374
512,1.840108228508228,998,1001.3509213015228,519,8.491985778457273,0.375
512,1.8910612938438591,998,1001.3370818868285,519,8.24765027379539,0.376
512,1.9409659086507212,998,1001.3231655229453,520,8.0052114066376,0.377
511,2.0257917472680727,998,1001.3091720773988,522,7.763850222333423,0.378
512,2.151369265920852,998,1001.2951014179599,523,7.523001028827071,0.379
512,2.2936981533717447,998,1001.280953412646,523,7.282890923550092,0.38
512,2.4726908203014704,998,1001.2667279297222,523,7.044940563578944,0.381
512,2.5560787502226905,998,1001.2524248377032,522,6.811944475785452,0.382
512,2.528902020795908,998,1001.2380440053545,520,6.587985746782141,0.383
510,2.4879494209338393,998,1001.2235853016942,519,6.378085027677418,0.384
512,2.569680038495003,998,1001.2090485959952,518,6.187628254384389,0.385
513,2.7678588993239095,998,1001.1944337577856,517,6.0216531569504905,0.386
512,2.942211560975144,998,1001.1797406568508,516,5.884096510625145,0.387
511,3.051711204286792,998,1001.1649691632347,515,5.7771109358947434,0.388
508,2.977247275616212,998,1001.1501191472416,515,5.70055278566925,0.389
508,2.9612153670715475,999,1001.1351904794378,515,5.651722540855639,0.39
510,2.978293360711065,998,1001.1201830306522,516,5.625408004154977,0.391
512,2.9602114356296214,998,1001.1050966719781,516,5.614241953687029,0.392
513,2.998475976528797,998,1001.0899312747747,517,5.609344945196105,0.393
508,3.011530343898816,998,1001.0746867106682,519,5.601185957996547,0.394
509,3.023310331892342,998,1001.0593628515535,519,5.580562947777839,0.395
507,3.194497068596173,998,1001.0439595695966,521,5.539585833722877,0.396
502,3.334334389800203,998,1001.0284767372359,521,5.472539384818912,0.397
502,3.3714035059017906,998,1001.0129142271835,521,5.376514948821234,0.398
504,3.549390862686412,998,1000.9972719124271,520,5.251727615143952,0.399
508,3.8270248634508097,998,1000.9815496662313,519,5.101475982137678,0.4
513,4.020575515626701,998,1000.9657473621387,517,4.931749213925796,0.401
516,4.080203346110571,998,1000.9498648739718,516,4.7505327642824895,0.402
517,4.076017803933213,998,1000.9339020758348,515,4.566902376704197,0.403
519,4.073863661692423,998,1000.917858842115,514,4.390020103851117,0.404
520,4.253281282254207,998,1000.9017350474846,514,4.228153719763266,0.405
519,4.573056261245232,998,1000.8855305669017,513,4.087832895930244,0.406
514,4.914428886559016,998,1000.8692452756122,513,3.973234774930343,0.407
510,5.269518613404013,998,1000.8528790491508,514,3.8858614833641627,0.408
505,5.550405955148788,998,1000.8364317633431,514,3.8245359469066664,0.409
500,5.811391661968977,999,1000.8199032943065,515,3.7857037894585805,0.41
498,5.849556874267504,998,1000.8032935184518,516,3.7639925777413517,0.411
504,5.921798368584872,998,1000.7866023124842,517,3.752949639129058,0.412
511,6.0433357016763605,999,1000.7698295534054,518,3.7458596550348737,0.413
512,6.167439169797002,998,1000.7529751185147,518,3.7365358400028925,0.414
512,6.176370019432482,999,1000.7360388854103,518,3.7199852612748088,0.415
512,6.2558209236224105,999,1000.7190207319917,518,3.6928691262091635,0.416
513,6.346467725859138,998,1000.7019205364608,517,3.653709542328071,0.417
513,6.397760057919254,998,1000.6847381773235,516,3.6028306502195218,0.418
512,6.414350484618296,998,1000.6674735333917,515,3.5420590789216972,0.419
521,6.3906065541193335,998,1000.6501264837838,514,3.4742413557539034,0.42
518,6.399781824475966,998,1000.6326969079267,513,3.402659598615023,0.421
515,6.375141404245121,998,1000.6151846855581,513,3.330438253811188,0.422
523,6.262568806915045,998,1000.5975896967265,512,3.2600326484677256,0.423
528,6.136770714093471,998,1000.5799118217936,512,3.192875576979219,0.424
521,6.011834166635838,998,1000.5621509414362,513,3.1292332942290266,0.425
515,5.97629436251365,998,1000.5443069366473,513,3.0682901891249013,0.426
511,5.940405153348047,998,1000.5263796887383,514,3.008445938699477,0.427
511,5.850218715844488,999,1000.5083690793401,515,2.9477748545615,0.428
502,5.7641841344352756,998,1000.4902749904052,517,2.8845692337168036,0.429
494,5.624112690803381,998,1000.4720973042088,518,2.8178710608385282,0.43
494,5.495201651989334,999,1000.4538359033502,517,2.747893401957648,0.431
492,5.349790963500137,998,1000.4354906707538,517,2.676247238267468,0.432
497,5.300939379998038,999,1000.41706148967,516,2.605920430428513,0.433
497,5.284720073403885,998,1000.3985482436772,515,2.5409970198505363,0.434
509,5.180422354013389,998,1000.3799508166828,513,2.486148730364243,0.435
517,4.963360481438124,999,1000.3612690929256,512,2.4459687397068666,0.436
519,4.733665517341545,998,1000.3425029569773,512,2.4242446461388156,0.437
518,4.5963755600897285,999,1000.3236522937443,511,2.4232789368108283,0.438
515,4.629310385944848,998,1000.3047169884687,511,2.443360071114325,0.439
518,4.625132291684778,998,1000.2856969267302,511,2.482467867438194,0.44
517,4.626727090123856,999,1000.2665919944477,511,2.536267133668192,0.441
516,4.683964973505144,999,1000.2474020778807,512,2.5984070039767255,0.442
515,4.701901286056081,999,1000.2281270636306,513,2.6611035205331595,0.443
513,4.719005503936672,999,1000.2087668386432,515,2.7159434915364793,0.444
514,4.733344842146958,999,1000.1893212902094,516,2.754813542402925,0.445
514,4.589740237296046,999,1000.1697903059663,517,2.7708353464710798,0.446
515,4.461436189716618,999,1000.1501737738987,518,2.759181399397251,0.447
514,4.397122742942192,999,1000.13047158234,518,2.7176579448836966,0.448
512,4.157111396979685,999,1000.1106836199748,516,2.646971976653879,0.449
511,3.8481593765268767,998,1000.0908097758394,515,2.5506436553713896,0.45
513,3.653952553575641,998,1000.0708499393241,513,2.434576765455321,0.451
511,3.6034207795732067,999,1000.0508040001752,513,2.3063482965273536,0.452
510,3.6268846986014194,998,1000.0306718484954,511,2.174314880112662,0.453
513,3.7065417043430036,999,1000.0104533747464,511,2.0466538444031643,0.454
515,3.5845152947478764,998,999.9901484697494,510,1.9304598058606457,0.455
511,3.32917174107366,998,999.9697570246877,510,1.8310060231348828,0.456
511,3.0416521599008717,999,999.9492789311076,510,1.751255789642642,0.457
512,2.7088945011429826,998,999.9287140809193,511,1.6916759646065764,0.458
511,2.4173603285578915,999,999.9080623663987,511,1.650366148436214,0.459
512,2.216439272907277,999,999.8873236801893,512,1.6234775302787028,0.46
510,2.214509939762284,999,999.8664979153042,513,1.6058596288537008,0.461
512,2.1726345620227554,999,999.8455849651274,515,1.5918447743820232,0.462
513,2.1461024446160417,999,999.8245847234152,515,1.5760623920697114,0.463
512,2.0907853760281836,999,999.8034970842973,516,1.5541711402574019,0.464
510,2.0639080894435002,999,999.7823219422785,515,1.5234090831560771,0.465
508,1.9553797055299813,999,999.7610591922403,515,1.482889736328722,0.466
508,1.8716000213402455,999,999.7397087294416,513,1.4336106916692586,0.467
509,1.8460468526612572,999,999.7182704495208,512,1.3781848713829445,0.468
509,1.8229661502246983,999,999.6967442484965,511,1.3203448473781085,0.469
509,1.837785539691161,999,999.6751300227697,511,1.2643013983941684,0.47
510,1.8163556876888443,998,999.6534276691245,510,1.2140543186223252,0.471
511,1.7767387009266005,999,999.6316370847303,509,1.172755882623241,0.472
511,1.7567962743648038,999,999.6097581671438,509,1.1422173774937978,0.473
510,1.7310634492149657,999,999.5877908143107,509,1.122628823462937,0.474
511,1.7307717817841266,999,999.5657349245666,510,1.1125326998679574,0.475
512,1.733969170090203,999,999.5435903966386,511,1.1090564095268012,0.476
512,1.7256114248488184,999,999.5213571296467,512,1.1083700072379352,0.477
515,1.71138450563746,999,999.4990350231054,513,1.1063016368968828,0.478
514,1.6789672775876927,999,999.4766239769255,514,1.0990189400813477,0.479
515,1.6593275184391691,999,999.4541238914152,515,1.08367423171791,0.48
514,1.609910287702925,999,999.4315346672814,514,1.0589160955669032,0.481
513,1.606930716862719,999,999.4088562056307,514,1.0251898088332234,0.482
511,1.5995725739770539,999,999.3860884079708,513,0.9847807892940106,0.483
507,1.6094294922552306,999,999.3632311762125,512,0.9415935801961544,0.484
508,1.609683079237812,999,999.3402844126716,511,0.9006970614571064,0.485
507,1.6322843703183136,999,999.31724802007,510,0.8676987281810938,0.486
505,1.6400977139359998,999,999.2941219015369,510,0.8480328428209097,0.487
507,1.6588754096080096,999,999.2709059606103,509,0.8462567656991097,0.488
509,1.6461008850271366,999,999.2476001012386,509,0.8654466403175685,0.489
510,1.6396188569555872,999,999.2242042277825,509,0.9067694576638018,0.49
512,1.650061916823147,999,999.2007182450164,509,0.9692856503950482,0.491
514,1.6416131675956929,999,999.1771420581306,510,1.0500071876714123,0.492
513,1.630929344385845,999,999.1534755727309,511,1.1442034780923263,0.493
513,1.6057127082996734,999,999.1297186948425,512,1.2459148925933377,0.494
512,1.6349127869467726,999,999.1058713309092,513,1.3486058163030343,0.495
511,1.7377067449338865,999,999.0819333877951,514,1.445870265260206,0.496
513,1.8068234050718628,999,999.0579047727863,514,1.5320964745255523,0.497
512,1.8939970646011601,999,999.0337853935923,515,1.603003645541164,0.498
511,1.9118876149166877,999,999.0095751583474,514,1.6559833531145693,0.499
512,2.020847031407816,999,998.9852739756122,513,1.690207385901009,0.5
511,2.257247911246548,999,998.960881754376,512,1.7064988908171388,0.501
511,2.4793443127962838,999,998.9363984040581,511,1.7069988558184697,0.502
512,2.5393436739598045,999,998.9118238345088,511,1.6946887166816424,0.503
511,2.459492062262589,999,998.8871579560112,510,1.6728473094722458,0.504
511,2.460281828785221,999,998.8624006792817,510,1.644525011986734,0.505
510,2.4738329847361227,999,998.8375519154725,510,1.612111151220188,0.506
511,2.414774841245357,999,998.8126115761726,510,1.5770551735758604,0.507
510,2.3800551157652197,999,998.7875795734077,509,1.5397803253546976,0.508
512,2.4441167706830456,999,998.7624558196427,510,1.4998030238219553,0.509
512,2.4517708226957913,999,998.7372402277825,511,1.4560433531507786,0.51
513,2.4291848508516445,999,998.7119327111747,512,1.407283651387587,0.511
512,2.3570732578338056,999,998.6865331836103,513,1.3527060583611155,0.512
512,2.243338752456334,999,998.661041559326,514,1.2924213622681757,0.513
511,2.1786167931430507,999,998.6354577530043,514,1.2278955523089385,0.514
509,2.1412907325848214,999,998.6097816797752,514,1.1621896065519577,0.515
508,2.141805851827435,999,998.5840132552181,514,1.099951473812655,0.516
508,2.120599917703536,999,998.5581523953625,513,1.0471336433323415,0.517
510,2.0774393229604664,999,998.5321990166908,511,1.0104503336719144,0.518
514,2.0554943937169163,999,998.506153036139,510,0.9966295819840819,0.519
518,2.0320284742965984,999,998.4800143710982,509,1.01155095474851,0.52
515,2.0374534529357065,999,998.4537829394158,508,1.0593826464700684,0.521
515,2.059889583479856,999,998.4274586593965,508,1.1418378956730983,0.522
512,2.0310719476180727,1000,998.4010414498039,508,1.2576592064777588,0.523
504,2.017315608996084,999,998.3745312298615,508,1.4024122958085965,0.524
499,2.020346957489768,999,998.3479279192557,509,1.5686341504397494,0.525
498,2.0034383321041194,999,998.3212314381358,510,1.7463358113626803,0.526
507,2.041957016691942,999,998.2944417071167,512,1.9238153611962652,0.527
510,2.058763527271913,999,998.2675586472792,513,2.088695295363622,0.528
515,2.0521739010826936,999,998.2405821801726,515,2.2290667811322735,0.529
515,2.0660188903611054,999,998.2135122278154,515,2.3346066317227647,0.53
512,2.069605044111344,999,998.1863487126969,515,2.3975344262587437,0.531
510,2.05889523346762,999,998.1590915577784,516,2.413296969390525,0.532
515,2.059576187107239,999,998.131740686494,515,2.380901737022105,0.533
515,2.070886284334594,999,998.1042960227522,514,2.302864977269656,0.534
513,2.0843556858738395,999,998.0767574909377,512,2.18478865661975,0.535
511,2.073140188830734,999,998.0491250159129,511,2.0346280722254915,0.536
511,2.0940378500578056,999,998.0213985230192,509,1.8617520362246238,0.537
511,2.08540591590321,999,997.9935779380788,508,1.6759233772234787,0.538
511,2.0645063489316287,999,997.9656631873953,507,1.4863346983358188,0.539
513,2.0828245790348623,999,997.9376541977553,508,1.3008217140989886,0.54
511,2.0863645629720926,999,997.90955089643,508,1.1253460555807409,0.541
513,2.0443986083562815,999,997.8813532111765,508,0.9637963805537996,0.542
512,2.050072001780519,999,997.8530610702385,510,0.8181083874602956,0.543
513,2.1024150638921575,999,997.8246744023488,511,0.6886582051484048,0.544
510,2.1097784388864107,999,997.7961931367297,512,0.5748454645843702,0.545
511,2.0302903946960598,999,997.7676172030945,513,0.47575719068043304,0.546
511,1.9992062120122038,999,997.7389465316489,513,0.39079558289894173,0.547
512,1.9130805843661727,999,997.7101810530928,513,0.3201632431537021,0.548
512,1.9767767782781511,999,997.681320698621,512,0.26512640477658606,0.549
512,1.8754303360036,999,997.6523653999245,511,0.22801536947397769,0.55
514,1.6426409757147749,999,997.6233150891928,510,0.21196511157476527,0.551
513,1.4081082433916021,999,997.5941696991147,509,0.22044073598357622,0.552
512,1.3349491224989323,999,997.5649291628785,508,0.2566259263556437,0.553
513,1.3637302783951102,999,997.5355934141741,507,0.32277345410915265,0.554
511,1.3749953118739802,999,997.506162387194,507,0.4196231452379366,0.555
512,1.3311701559286222,999,997.4766360166351,507,0.5459840171049225,0.556
511,1.3475681377518554,999,997.4470142376996,507,0.6985548350889125,0.557
511,1.3734424776589416,1000,997.4172969860966,508,0.8720241508195998,0.558
510,1.3703412806824602,999,997.3874841980443,509,1.05945131355685,0.559
513,1.4041700743404133,1000,997.3575758102699,511,1.2528888081475478,0.56
514,1.4569392102273195,1000,997.3275717600119,513,1.4441688491402402,0.561
513,1.6348471568295873,1000,997.2974719850214,513,1.6257494877167809,0.562
511,1.853549793223336,1000,997.2672764235632,514,1.7915032858318127,0.563
511,1.9478697040811686,999,997.2369850144169,514,1.9373377404115444,0.564
509,1.9633481672039212,999,997.2065976968784,514,2.061559443907042,0.565
511,2.0324278729966325,999,997.1761144107618,514,2.1649285653322217,0.566
508,2.322587433435674,999,997.1455350963993,513,2.2503912885246304,0.567
508,2.73569577456693,1000,997.1148596946423,511,2.322520790062438,0.568
507,3.0529043914341893,1000,997.0840881468635,510,2.386737570621707,0.569
508,3.231715433113052,1000,997.0532203949583,510,2.448411817530643,0.57
508,3.2465700277040836,999,997.0222563813454,509,2.511968276930842,0.571
511,3.2595192801394495,1000,996.991196048969,508,2.580114939423688,0.572
515,3.3084187841948114,1000,996.9600393412998,508,2.653301686049807,0.573
512,3.390269502331223,999,996.928786202336,509,2.7294865668757886,0.574
510,3.459244845397675,1000,996.8974365766056,510,2.804248167416683,0.575
511,3.507566469552384,1000,996.8659904091668,511,2.87123645672436,0.576
511,3.5364708929600615,1000,996.8344476456094,512,2.9229081209285073,0.577
512,3.613218861104358,1000,996.8028082320569,514,2.9514529760005948,0.578
514,3.67817450241222,1000,996.7710721151674,515,2.949791190772331,0.579
513,3.7012673139634953,1000,996.7392392421342,515,2.9125102588467278,0.58
511,3.711090897758913,1000,996.7073095606873,515,2.836617935530386,0.581
512,3.7377818339736004,1000,996.6752830190943,515,2.7220122322443885,0.582
513,3.741692708706385,1000,996.6431595661619,514,2.5716081496304635,0.583
516,3.779119824972438,1000,996.6109391512371,512,2.3911071209724213,0.584
514,3.7962030621548113,1000,996.5786217242082,511,2.1884428747487474,0.585
519,3.7843856207474684,1000,996.5462072355074,509,1.972980286436733,0.586
521,3.734254656980773,1000,996.5136956361105,508,1.7545753251375729,0.587
515,3.7843979595356543,1000,996.4810868775387,508,1.5426193594810271,0.588
511,3.860239398337395,1000,996.4483809118594,507,1.3451880362168946,0.589
505,3.8866365688671065,1000,996.415577691688,508,1.1683955285345127,0.59
496,3.910935751171233,1000,996.382677170189,507,1.0160237357802884,0.591
488,4.061389083126473,1000,996.349679301077,508,0.8894584502137258,0.592
494,4.208429955556081,1000,996.316584038618,509,0.787925262208956,0.593
500,4.282324417068987,1000,996.2833913376309,509,0.7089806529461345,0.594
509,4.287789780647239,1000,996.2501011534883,511,0.6491816796216575,0.595
512,4.282803080738276,1000,996.216713442118,512,0.6048344851849928,0.596
514,4.2637512759821234,1000,996.1832281600033,512,0.5727109877257494,0.597
515,4.31234750158128,1000,996.1496452641851,513,0.5506271381052371,0.598
515,4.315079953154462,1000,996.1159647122632,512,0.5377959414571102,0.599
514,4.3456585899934925,1000,996.0821864623973,511,0.5349020162915413,0.6
515,4.354099744521739,1000,996.0483104733077,510,0.5438868361156666,0.601
517,4.385374866448932,1000,996.0143367042766,509,0.5674780238851841,0.602
515,4.384340268422199,1000,995.9802651151509,508,0.6085347993690386,0.603
515,4.374069837621815,1000,995.9460956663415,507,0.669309055779165,0.604
513,4.3625942629798065,1000,995.9118283188254,507,0.7507343921492368,0.605
515,4.432121139078891,1000,995.8774630341463,506,0.851852982014618,0.606
513,4.594003164370835,1000,995.8429997744161,506,0.9694732918652457,0.607
517,4.921665654119057,1000,995.8084385023149,507,1.098122370190029,0.608
515,5.6617248940278095,1000,995.7737791810932,508,1.230317538383532,0.609
514,6.46361789824071,1000,995.7390217745728,510,1.3571379665213326,0.61
513,7.266245939587397,1000,995.7041662471484,511,1.4690330231751458,0.611
511,8.11767667831021,1001,995.6692125637892,512,1.556768966389978,0.612
510,8.645150988636328,1000,995.6341606900404,513,1.6123948321079045,0.613
512,8.782146820654779,1000,995.599010592024,513,1.6301053072864804,0.614
511,8.773391946546683,1000,995.5637622364401,513,1.6068924236989233,0.615
506,8.79307031750776,1000,995.5284155905669,512,1.5429060493769071,0.616
504,8.982848654029915,1000,995.4929706222614,512,1.4414807995469803,0.617
507,10.019450288615348,1000,995.4574272999611,511,1.3088286892521588,0.618
510,11.918120753951285,1000,995.4217855926848,509,1.1534374065009934,0.619
511,13.790459575916273,1000,995.3860454700347,508,0.9852492993778826,0.62
512,15.427407950516043,1000,995.3502069021969,507,0.8147222424784548,0.621
511,16.477301463188265,1001,995.314269859943,506,0.6518865902674205,0.622
509,16.705568814534253,1000,995.2782343146312,506,0.5055098049859625,0.623
510,16.96507047635163,1000,995.2421002382073,506,0.38246232365885224,0.624
512,17.6271913662705,1000,995.2058676032063,507,0.287347885414618,0.625
514,18.371478326220352,1000,995.1695363827523,507,0.22242377282420303,0.626
513,19.05641826165482,1001,995.133106550559,508,0.18779698660409574,0.627
512,19.70236092075672,1001,995.0965780809322,509,0.18184664863946653,0.628
515,20.269925347240004,1001,995.0599509487708,510,0.2017948518617218,0.629
516,20.673231019496953,1000,995.0232251295686,511,0.2443304289112659,0.63
520,20.96573391861178,1000,994.9864005994143,512,0.3061848946649833,0.631
527,21.18187887807746,1000,994.9494773349926,512,0.38456880016614886,0.632
550,21.263047502590545,1000,994.9124553135845,511,0.477400183570624,0.633
554,21.2482071173276,1000,994.8753345130691,510,0.5832925325526525,0.634
553,21.30203175235996,1000,994.8381149119247,509,0.7013122991853956,0.635
559,21.3467362577772,1000,994.80079648923,508,0.830557625321258,0.636
545,21.341847542527184,1000,994.7633792246658,507,0.9696426742292766,0.637
519,21.326452213486835,1001,994.7258630985149,506,1.1161904936736367,0.638
507,21.301931534165604,1001,994.6882480916635,506,1.2664393075450577,0.639
501,21.310194727294984,1000,994.6505341856019,507,1.4150523732993088,0.64
482,21.313294339620594,1001,994.6127213624263,507,1.5551920010317934,0.641
433,21.169332040995016,1001,994.5748096048401,508,1.6788786102390318,0.642
394,20.987680714953257,1000,994.5367988961552,509,1.7776122272164547,0.643
403,20.876468357397638,1001,994.4986892202919,511,1.8431927167586175,0.644
422,20.856831903812544,1000,994.4604805617791,512,1.8686412070646519,0.645
452,20.80457478624534,1000,994.4221729057563,513,1.8491031726830167,0.646
492,20.803597610194906,1001,994.3837662379747,513,1.7826077438121437,0.647
524,20.789128500688207,1000,994.3452605447983,513,1.6705701098082852,0.648
544,20.813951539946043,1000,994.3066558132055,513,1.5179528243315714,0.649
547,20.852374807399503,1001,994.2679520307896,512,1.3330429303170703,0.65
546,20.905936595994483,1000,994.2291491857599,510,1.1268497037573462,0.651
545,20.937540638020547,1001,994.190247266942,508,0.9121769993552279,0.652
541,20.995880485377878,1001,994.1512462637796,507,0.7024683604401182,0.653
531,21.04266997809175,1001,994.1121461663341,506,0.510555017034075,0.654
526,21.027345286121424,1001,994.0729469652869,505,0.34745093270431676,0.655
522,20.968109549927767,1000,994.0336486519399,504,0.221333562397752,0.656
516,20.825328634925,1001,993.9942512182173,505,0.1368260274087204,0.657
513,20.564510999316106,1000,993.9547546566668,505,0.09465953434354377,0.658
517,19.837217292395046,1001,993.9151589604592,506,0.0917483529465708,0.659
514,19.02112413225179,1001,993.8754641233897,508,0.12165922584483271,0.66
513,18.246803471526356,1001,993.8356701398795,509,0.17540948781833313,0.661
515,17.29688343540557,1001,993.7957770049759,510,0.24249005233516543,0.662
516,16.59539824691302,1001,993.7557847143537,511,0.31198621668872395,0.663
516,16.36861770845547,1001,993.7156932643168,511,0.37366397178094707,0.664
517,16.659537738509183,1001,993.6755026517983,511,0.4189018744424027,0.665
515,17.11220607985039,1000,993.6352128743613,511,0.4413754058421713,0.666
515,17.156025580727594,1001,993.5948239301998,510,0.4374374317407216,0.667
516,15.997427367285406,1000,993.5543358181395,508,0.40617972511465855,0.668
517,13.830415092248755,1001,993.5137485376396,508,0.34920113289895716,0.669
515,11.772316756343308,1000,993.4730620887932,507,0.27014223263373177,0.67
512,10.163877088415003,1000,993.4322764723285,507,0.17406939477028377,0.671
513,9.194108560663047,1000,993.3913916896091,505,0.06680110482867549,0.672
508,9.01347302118659,1001,993.3504077426361,505,-0.04573267805071339,0.673
510,8.710091963623306,1000,993.3093246340474,505,-0.1580198303553344,0.674
510,8.031086212934401,1001,993.2681423671189,506,-0.2653279557430458,0.675
511,7.356922318078856,1001,993.2268609457656,507,-0.3638730612681208,0.676
510,6.687856062840147,1000,993.1854803745427,507,-0.45080280098155356,0.677
511,6.079998516269704,1001,993.1440006586477,508,-0.5240321631738969,0.678
511,5.560241652604368,1000,993.1024218039188,508,-0.5819906847932884,0.679
511,5.153389435438179,1000,993.0607438168367,509,-0.6233505333185538,0.68
516,4.874173228120246,1000,993.0189667045256,510,-0.6468044370842062,0.681
519,4.7352640749231485,1000,992.9770904747534,509,-0.6509521394868217,0.682
518,4.772092108575183,1000,992.9351151359333,509,-0.6343340908186635,0.683
519,4.864882726382182,1000,992.8930406971253,507,-0.5956227845964257,0.684
520,5.017269688821447,1000,992.8508671680364,507,-0.5339496315585731,0.685
518,5.586442424556471,1000,992.8085945590218,506,-0.4493151318101539,0.686
517,6.53436594621597,1000,992.7662228810854,505,-0.3430086531460685,0.687
513,8.19906119358532,1001,992.7237521458813,505,-0.21795497487244997,0.688
500,10.523794113633112,1000,992.6811823657143,505,-0.07890876996204348,0.689
486,12.496968167799649,1000,992.6385135535405,505,0.0675654960617637,0.69
489,13.981022564268846,1000,992.5957457229678,505,0.21336437500102687,0.691
499,14.99015318140419,1000,992.5528788882565,506,0.3493698418818752,0.692
512,15.096232037376002,1000,992.5099130643214,508,0.46619358307031794,0.693
515,15.920315585227396,1000,992.4668482667319,509,0.5550712596372532,0.694
512,17.866214403631698,1000,992.4236845117136,510,0.6088062254948506,0.695
509,20.979856698137517,1000,992.3804218161488,512,0.6226433470546399,0.696
510,25.009746394065907,999,992.337060197576,512,0.594951368811946,0.697
513,29.148558177974188,1000,992.2935996741919,512,0.5276086316562308,0.698
512,31.265466330459404,1000,992.2500402648518,511,0.426021037876438,0.699
509,31.196552492531076,999,992.2063819890707,509,0.2987492085400864,0.7
510,32.653769175144696,999,992.1626248670234,507,0.15677662657812186,0.701
508,33.95019319674691,999,992.1187689195455,505,0.012502501778918911,0.702
508,34.04646475481701,999,992.0748141681339,505,-0.12141780231644841,0.703
512,34.216011636794626,999,992.0307606349485,504,-0.23324295160787836,0.704
515,34.42667005447062,999,991.9866083428116,504,-0.31318782078808466,0.705
518,35.377065020898954,999,991.9423573152095,504,-0.35422113881335293,0.706
519,37.51318413715308,1000,991.898007576293,504,-0.352536993484686,0.707
518,39.60549933583879,999,991.8535591508786,505,-0.3076606942645554,0.708
524,41.18928615279986,999,991.8090120644484,506,-0.22219438867640937,0.709
540,41.7389270666312,999,991.7643663431522,508,-0.10125149550491164,0.71
558,42.041063945126446,999,991.7196220138076,509,0.04833320089128424,0.711
593,43.12997812158422,1000,991.6747791039002,510,0.21890437093115753,0.712
628,44.7332893749296,999,991.6298376415839,511,0.40287364454961255,0.713
607,46.763835441379854,999,991.5847976556815,511,0.5934764995738306,0.714
585,48.24190292575443,999,991.5396591756858,511,0.7853046162672798,0.715
556,48.67279321621281,999,991.4944222317604,510,0.9745558744473641,0.716
512,48.2986642097488,999,991.4490868547418,509,1.1589876141280198,0.717
461,48.48936297286605,999,991.403653076139,508,1.337603033533449,0.718
403,49.1700960145704,999,991.3581209281341,508,1.5101387796500123,0.719
348,50.2482234062674,999,991.312490443583,507,1.6764483424344279,0.72
298,51.47511274926719,999,991.2667616560165,506,1.8358881052216154,0.721
296,52.711723880413466,999,991.220934599641,506,1.9868108312240098,0.722
388,53.955014574948294,999,991.1750093093391,506,2.1262559017123617,0.723
507,55.08358554743475,999,991.1289858206695,507,2.249897781962507,0.724
575,55.911709607649314,999,991.0828641698685,508,2.352276375687886,0.725
575,56.4039792201123,999,991.03664439385,509,2.427290089143229,0.726
507,56.54353732105738,999,990.9903265302071,511,2.468891231318601,0.727
519,57.02646744878715,999,990.9439106172119,511,2.471890371219058,0.728
513,58.355423580945505,998,990.8973966938167,512,2.4327565021004305,0.729
558,59.87515445604209,999,990.8507847996536,513,2.350296026006414,0.73
611,60.979725682264444,998,990.8040749750351,513,2.22610577215024,0.731
617,61.58410872875609,999,990.7572672609551,512,2.0647218691349982,0.732
588,61.88632638890294,998,990.7103616990905,511,1.8734248066094765,0.733
540,62.086831041920234,998,990.663358331801,509,1.6617073047919784,0.734
487,62.123344440601144,998,990.61625720213,508,1.440458924192426,0.735
449,61.59143904713552,998,990.5690583538054,506,1.2209616543026214,0.736
428,60.66506624163298,998,990.5217618312396,506,1.0138173288333239,0.737
406,58.999808129685995,998,990.4743676795302,505,0.8279370549497191,0.738
424,56.719800316389254,998,990.4268759444609,505,0.6697148765786239,0.739
460,54.856521149487996,998,990.3792866725013,504,0.5424854625048482,0.74
507,53.558822574561056,998,990.3315999108078,504,0.4463327395847426,0.741
536,52.745784566312985,998,990.2838157072243,505,0.3782763990823965,0.742
553,52.74589327485859,998,990.2359341102829,507,0.3328185445228986,0.743
567,51.97933368607012,998,990.1879551692045,508,0.3027870310010939,0.744
581,50.116985345766906,998,990.1398789339,509,0.280371692747659,0.745
582,47.11805154894345,998,990.0917054549705,510,0.25822232653362,0.746
584,43.173970004329306,998,990.0434347837063,511,0.2304681802349469,0.747
574,39.02631799210651,998,989.9950669720884,511,0.193528794682777,0.748
561,36.868903520054374,998,989.9466020727891,510,0.14661353814431977,0.749
547,37.468463222183914,997,989.8980401391727,509,0.09184863718078543,0.75
528,36.65813748134755,998,989.8493812252967,508,0.03402040603503041,0.751
486,35.94976736156643,997,989.8006253859115,507,-0.02002594547670481,0.752
444,36.500923766493536,997,989.7517726764612,505,-0.062248737682733646,0.753
439,36.9982104414958,997,989.7028231530843,504,-0.08441887966561587,0.754
459,37.1300119001911,997,989.6537768726133,504,-0.07914534397275716,0.755
481,36.61115191292724,997,989.6046338925756,504,-0.040788891568025856,0.756
494,35.92065013259908,997,989.5553942711939,504,0.03384499540599046,0.757
499,35.5152042199471,996,989.506058067387,504,0.14511075147357333,0.758
501,35.14595472035531,996,989.4566253407705,505,0.2904619250902583,0.759
511,35.26170555685413,996,989.407096151657,507,0.4647193753851177,0.76
516,35.002590759807646,996,989.357470561057,508,0.66062146272365,0.761
517,33.992847608347525,996,989.3077486306786,509,0.869573614607265,0.762
519,32.52256169434531,996,989.2579304229278,511,1.082490475519045,0.763
522,30.76489523193484,996,989.2080160009089,511,1.290615315750951,0.764
526,29.24788068252782,996,989.1580054284248,511,1.4862097504199292,0.765
524,28.511195455551768,995,989.1078987699773,511,1.6630306923406408,0.766
519,28.617829393682143,996,989.0576960907686,510,1.8165469847096194,0.767
517,28.341592067343914,995,989.0073974567018,509,1.9438893660780572,0.768
519,27.82428174955327,996,988.957002934381,508,2.0435675988280915,0.769
518,26.90857702730185,995,988.9065125911112,508,2.115021714337756,0.77
517,25.73623855745857,995,988.8559264948996,507,2.1580959419047057,0.771
510,24.522743045871998,996,988.8052447144552,506,2.1725320056607327,0.772
514,23.26673768293181,995,988.7544673191898,506,2.157573503524948,0.773
542,22.133837757337396,995,988.7035943792172,506,2.11175629300673,0.774
546,21.26918581906321,995,988.6526259653543,506,2.0329324929425097,0.775
543,20.692165554656203,995,988.601562149122,507,1.9185401730617155,0.776
546,20.48799375656817,995,988.550403002745,508,1.7660911145560356,0.777
546,19.9164151110154,995,988.4991485991532,510,1.5738104741208536,0.778
530,18.480973661835012,995,988.4477990119804,511,1.341330785541335,0.779
484,16.95770654230246,995,988.3963543155651,511,1.0703248985034803,0.78
436,15.909916487128724,995,988.3448145849516,511,0.7649633675355259,0.781
419,15.369151275494884,995,988.2931798958903,510,0.43210279808083374,0.782
446,15.116253682271623,995,988.2414503248383,509,0.08114907254319076,0.783
470,14.96141915945729,994,988.1896259489595,507,-0.27641385788559786,0.784
503,15.149536664181658,995,988.1377068461242,506,-0.6277907795206348,0.785
517,15.703304936617132,994,988.0856930949097,504,-0.9598565543504657,0.786
520,16.168447918144608,994,988.0335847746018,503,-1.260240495053463,0.787
524,16.352685076645862,994,987.9813819651944,502,-1.5183874553244794,0.788
524,16.319464504159516,994,987.9290847473898,502,-1.7264715102235737,0.789
523,16.2401033279115,994,987.8766932025991,501,-1.880056413765844,0.79
524,16.354784689974927,993,987.824207412942,502,-1.9784285039132348,0.791
522,16.877768692645223,993,987.7716274612475,503,-2.024568148394982,0.792
523,18.389669282755534,993,987.7189534310539,504,-2.02477030753076,0.793
520,20.291625490577594,993,987.6661854066099,505,-1.9879676678182105,0.794
518,21.48481990100284,993,987.6133234728738,506,-1.924844960139534,0.795
519,21.962488645455316,993,987.5603677155152,507,-1.846855645993438,0.796
517,21.919792352210308,993,987.5073182209137,508,-1.7652597744131975,0.797
514,22.209570205934146,993,987.4541750761598,508,-1.6902941439785732,0.798
514,22.551964657508698,993,987.4009383690543,508,-1.630563732100809,0.799
514,22.520135771623845,993,987.3476081881101,507,-1.592708740974191,0.8
512,22.413429011982085,992,987.2941846225524,505,-1.5813586496343464,0.801
510,22.28457015806263,993,987.2406677623177,504,-1.5993396990285396,0.802
514,22.036066792040085,992,987.1870576980547,502,-1.6480631455564934,0.803
514,21.88873690193576,992,987.1333545211247,502,-1.7279960778383099,0.804
518,21.905561488356103,992,987.0795583236023,502,-1.8391096631822206,0.805
521,21.97100937826305,992,987.0256691982746,502,-1.9812118771417375,0.806
522,21.64000871477207,992,986.9716872386413,502,-2.1540989153212062,0.807
522,20.999967838167773,992,986.9176125389146,502,-2.357494925827827,0.808
536,20.573777465539386,992,986.8634451940198,503,-2.590787356960575,0.809
545,20.67696876207641,992,986.8091852995963,504,-2.8526010494785075,0.81
536,21.39949608361413,992,986.7548329519968,505,-3.140285013423468,0.811
525,21.46322571747393,992,986.7003882482891,505,-3.4494076319645037,0.812
514,22.811049289902577,992,986.6458512862546,506,-3.7733645645504565,0.813
509,24.388461500144697,992,986.5912221643894,506,-4.103196365373317,0.814
492,26.169795782690194,992,986.5365009819038,505,-4.427690000752972,0.815
476,27.383641487112865,992,986.4816878387223,504,-4.733802353261401,0.816
428,27.445004679923844,992,986.4267828354841,503,-5.007398520336966,0.817
413,27.6125927975341,992,986.3717860735441,500,-5.234249336729089,0.818
443,27.92155700360393,991,986.3166976549718,499,-5.401188512909148,0.819
482,27.958303155015233,991,986.2615176825519,497,-5.497297566228907,0.82
514,28.16308089888511,991,986.206246259784,497,-5.514972702509694,0.821
527,28.77968830724158,991,986.1508834908831,497,-5.450735628247098,0.822
531,29.264992766433476,991,986.0954294807792,498,-5.305679115507826,0.823
540,29.361829189194697,991,986.0398843351194,498,-5.085482686209388,0.824
541,29.928686560463348,991,985.9842481602662,500,-4.799986315381288,0.825
536,30.575790288314465,991,985.9285210632987,502,-4.462363090429022,0.826
534,31.18809889943073,991,985.8727031520118,503,-4.08797914975608,0.827
538,31.73152020615773,991,985.8167945349171,504,-3.6930655802365773,0.828
531,32.26690980320271,991,985.7607953212425,506,-3.293347887417123,0.829
536,32.602552933991284,991,985.7047056209319,507,-2.902782266216074,0.83
568,32.7065563857716,990,985.6485255446453,508,-2.5325347688443527,0.831
565,32.566419555076685,990,985.5922552037589,508,-2.190310807988188,0.832
553,32.57578632545013,991,985.5358947103657,507,-1.880099752968881,0.833
551,32.80101787196877,990,985.4794441772758,505,-1.602346299827254,0.834
553,33.04474501980347,990,985.4229037180169,504,-1.3545039297604533,0.835
496,32.9539132268238,990,985.3662734468327,503,-1.1318758250776515,0.836
432,32.669718458964994,990,985.3095534786836,502,-0.9286144037134058,0.837
414,32.512396243839156,990,985.2527439292472,502,-0.7387376739046502,0.838
406,32.73700581189,990,985.195844914918,503,-0.5570293243680321,0.839
434,32.91816194936687,990,985.1388565528069,504,-0.37971621320830806,0.84
492,32.77277793434033,990,985.0817789607423,504,-0.2048552688233566,0.841
527,32.21278279367061,990,985.02461225727,504,-0.032403993508699484,0.842
535,30.706656348082166,990,984.9673565616528,505,0.13601149916812125,0.843
518,28.835001837171966,990,984.9100119938712,507,0.2975821848679468,0.844
492,27.604677648473263,990,984.8525786746231,508,0.4489773216733881,0.845
470,27.069230108697074,989,984.7950567253238,509,0.5870805959930001,0.846
480,27.005325058010417,990,984.737446268105,510,0.7096899841091948,0.847
515,26.719063041730635,989,984.6797474258155,510,0.8160747435522219,0.848
539,26.340335422015322,989,984.6219603220211,510,0.9073033612938614,0.849
543,25.78930894845416,989,984.5640850810046,509,0.9862896477547198,0.85
542,25.180509692431272,988,984.5061218277665,508,1.0575456165857677,0.851
539,24.66395509593344,989,984.4480706880245,507,1.126673136664643,0.852
538,24.226585376451762,989,984.3899317882127,506,1.1996648940198187,0.853
529,23.66590425636743,988,984.3317052554829,505,1.2821131354012407,0.854
521,23.302197195435607,988,984.2733912177031,504,1.3784381579180855,0.855
510,22.78076038514829,988,984.2149898034585,505,1.4912459204891177,0.856
502,21.665383494223967,988,984.1565011420506,505,1.6209058565206484,0.857
492,20.587944458987774,988,984.0979253634981,505,1.7654087057371484,0.858
476,19.756414457092497,988,984.0392625985363,507,1.9205250077642924,0.859
486,18.928027202085122,988,983.9805129786167,508,2.08024364009893,0.86
502,18.118090665447543,988,983.9216766359075,509,2.237431749670655,0.861
518,17.96903342191921,988,983.8627537032928,510,2.384627587650482,0.862
527,16.523864382682532,988,983.8037443143728,511,2.514860381867432,0.863
528,14.662895565633548,988,983.744648603463,512,2.6223886342097504,0.864
524,12.624060436381326,988,983.6854667055948,512,2.703260053751918,0.865
524,11.204110486411702,988,983.6261987565151,511,2.7556215683794547,0.866
520,10.939420328212158,988,983.5668448926874,510,2.779744116747686,0.867
521,10.638377585218556,987,983.5074052512907,509,2.7777693165701134,0.868
519,10.16666465862528,987,983.4478799702199,508,2.7532263565731703,0.869
518,9.968259522721905,987,983.3882691880855,506,2.7104002659828614,0.87
513,9.677337899563197,987,983.3285730442127,506,2.6536519954535693,0.871
513,8.969716311200408,987,983.2687916786423,507,2.5867939940376328,0.872
512,8.452244751584866,987,983.2089252321294,506,2.512612319512297,0.873
512,8.326368802368304,987,983.1489738461438,506,2.432601290007948,0.874
514,7.7401886128075565,987,983.0889376628699,506,2.346945036448188,0.875
513,7.083780078347578,987,983.0288168252056,507,2.254746570801275,0.876
512,6.450589500465481,987,982.9686114767634,508,2.1544711225787063,0.877
512,5.868873088051282,987,982.9083217618696,509,2.0445385306186417,0.878
511,5.345119913960182,987,982.8479478255645,510,1.923973574782206,0.879
511,5.003066110553893,987,982.787489813602,511,1.7930084245495774,0.88
511,4.8450411394472725,986,982.7269478724506,511,1.653531656436368,0.881
509,5.064778575086228,986,982.6663221492918,511,1.5092949148494719,0.882
511,5.248704509956013,986,982.6056127920197,510,1.3658200698162701,0.883
510,5.111211873209014,986,982.5448199492407,508,1.2299928442406967,0.884
509,4.543857095310602,986,982.483943770274,507,1.1093770226687865,0.885
508,4.13000803417834,986,982.4229844051506,505,1.0113284655466115,0.886
508,4.113424858224041,986,982.3619420046138,504,0.9420221318905762,0.887
512,4.169876643775682,986,982.3008167201186,504,0.9055221387788825,0.888
512,3.9730347676242643,985,982.2396087038318,504,0.9030221768695113,0.889
509,4.315122632503465,986,982.1783181086306,504,0.9323630444841353,0.89
509,4.9421865458032155,985,982.1169450881038,504,0.9879006004346496,0.891
507,5.214531086546063,985,982.0554897965511,504,1.0607569769386997,0.892
508,5.096962806967096,985,981.9939523889828,505,1.139444797853102,0.893
511,5.136215462163281,985,981.932333021119,507,1.2108108312944785,0.894
513,5.0483127383202655,985,981.8706318493895,509,1.2612045278838522,0.895
514,4.986486503137173,985,981.808849030934,511,1.2777432687803971,0.896
514,5.074403521731044,985,981.7469847236014,511,1.2495272827311,0.897
512,5.083406548291205,985,981.6850390859497,511,1.168659768568293,0.898
511,5.125283250444979,984,981.6230122772452,510,1.030953648434269,0.899
513,5.435418515978835,985,981.5609044574624,509,0.8362509730830107,0.9
511,5.916393086718111,985,981.498715787284,507,0.5883352782744126,0.901
512,6.141491814827834,985,981.4364464281,505,0.29447129403742955,0.902
512,6.194039533679766,984,981.3740965420072,504,-0.03534817135531232,0.903
513,6.585502945115657,984,981.3116662918103,503,-0.3893381295646527,0.904
513,6.952740782148536,984,981.2491558410203,502,-0.7549186854719182,0.905
524,7.271051746616689,984,981.1865653538549,502,-1.119659602321762,0.906
530,7.29746662154981,984,981.1238949952382,502,-1.4720806558270565,0.907
525,7.3549262154527355,984,981.0611449307995,502,-1.8022491656160202,0.908
519,7.6083939380635455,984,980.9983153268741,503,-2.102153991326049,0.909
518,8.164137081094925,984,980.9354063505017,504,-2.365872910767883,0.91
521,8.694593661435649,984,980.8724181694271,505,-2.5895826064600427,0.911
518,9.034194781535676,984,980.8093509520996,506,-2.771482657398302,0.912
507,9.231218504594732,984,980.7462048676725,506,-2.9117127391754836,0.913
481,9.310141287606289,984,980.6829800860028,505,-3.0123333290441514,0.914
469,9.860051466250562,984,980.6196767776505,505,-3.0774156303582285,0.915
489,11.14256489522444,984,980.5562951138786,504,-3.1132509693337864,0.916
512,12.372228235233873,984,980.4928352666516,502,-3.128650606822489,0.917
520,13.055818132706428,984,980.4292974086361,501,-3.1352707127244233,0.918
512,13.309283726921919,983,980.3656817132,499,-3.147870231032787,0.919
512,15.034548445088808,984,980.3019883544125,499,-3.184397013751682,0.92
516,16.733034906545193,984,980.2382175070443,498,-3.265804016511059,0.921
514,17.607523788018053,984,980.1743693465654,499,-3.4155233381913934,0.922
507,17.641626212734046,984,980.1104440491466,499,-3.6585682255362357,0.923
494,18.107854744059715,983,980.0464417916577,501,-4.02028550319175,0.924
487,18.94362074298195,984,979.9823627516679,503,-4.52483510594964,0.925
499,20.12501157239686,983,979.9182071074446,504,-5.193520364254569,0.926
516,21.244624386391425,983,979.8539750379526,504,-6.0431229950720455,0.927
531,21.937415984508366,983,979.7896667228541,503,-7.084402743310551,0.928
533,22.109058945445035,983,979.7252823425082,500,-8.320900873814056,0.929
527,22.32924043524206,984,979.6608220779706,497,-9.748143996266602,0.93
516,22.52459237935688,983,979.5962861109936,494,-11.353290723519727,0.931
502,22.30296212310222,984,979.5316746240253,492,-13.11521139593582,0.932
527,22.12082141148893,983,979.4669878002094,489,-15.004951248698784,0.933
538,22.24665676310123,983,979.4022258233833,487,-16.98650496397728,0.934
542,22.108810058251866,983,979.3373888780782,486,-19.017824765925344,0.935
529,22.319808137578953,983,979.272477149518,484,-21.05199100449882,0.936
525,22.46588243066467,983,979.2074908236202,482,-23.03848815865834,0.937
513,22.6164389806877,983,979.142430086995,481,-24.924544831775805,0.938
482,22.832913780928358,983,979.0772951269438,480,-26.656509438734584,0.939
443,22.52479775884477,983,979.0120861314596,479,-28.181241771406466,0.94
444,21.86090802213729,983,978.9468032892261,476,-29.447503237940143,0.941
472,21.56745747657559,983,978.8814467896169,474,-30.407324695580996,0.942
523,21.652296452256714,982,978.816016822696,472,-31.017322706900686,0.943
598,21.538351687553064,983,978.7505135792159,471,-31.239929159208994,0.944
593,21.536332909539823,982,978.6849372506173,473,-31.044503172555757,0.945
558,21.553549287347646,982,978.6192880290287,478,-30.40831176786701,0.946
511,21.50671515790881,983,978.5535661072659,481,-29.31739243275305,0.947
488,21.566576176129033,982,978.4877716788315,484,-27.767333415877342,0.948
465,21.542223110333605,982,978.421904937914,484,-25.764009987205544,0.949
451,21.25363135387284,982,978.3559660793871,483,-23.3242876669624,0.95
452,20.8245116784492,982,978.2899552988097,483,-20.47665170358512,0.951
476,20.61162739398222,982,978.223872792425,485,-17.261664007705345,0.952
500,20.526375397857773,982,978.1577187571602,487,-13.732106038120863,0.953
523,20.186059574777477,982,978.0914933906259,491,-9.952653461993625,0.954
523,19.898643536596868,982,978.025196891116,495,-5.998948519503565,0.955
512,19.710054171662975,982,977.9588294576064,498,-1.955982462747109,0.956
503,19.795305453375466,982,977.8923912897538,504,2.0842363593914968,0.957
491,19.785507830678867,982,977.825882587896,510,6.025681696098121,0.958
513,19.614305944422025,982,977.7593035530502,515,9.771856096326774,0.959
529,19.082714438893852,982,977.6926543869125,520,13.229699334252293,0.96
531,18.565676313210293,982,977.6259352918577,524,16.31362222327186,0.961
527,18.20442006001258,982,977.5591464709385,528,18.949400760723304,0.962
530,17.97426156310481,981,977.4922881278851,531,21.077660361183973,0.963
529,17.9255787315603,981,977.4253604671051,534,22.656696854955307,0.964
524,17.551724532496245,982,977.3583636936817,536,23.664418024056022,0.965
523,16.431725198666413,981,977.2912980133726,537,24.099245440518946,0.966
520,15.490676455744891,982,977.22416363261,535,23.9798901867318,0.967
518,15.10645139881753,981,977.1569607584995,531,23.34400497819176,0.968
516,15.085610647857617,981,977.0896895988201,527,22.24581205604032,0.969
517,13.633574400950689,981,977.0223503620233,524,20.752897750704406,0.97
518,12.154741619760943,981,976.9549432572327,520,18.94243487082357,0.971
521,11.281732036240024,981,976.8874684942435,518,16.897131247393933,0.972
518,11.557045157778953,981,976.819926283522,515,14.701203879949231,0.973
519,11.66417712537238,981,976.7523168362037,513,12.436647910759007,0.974
518,11.561197038203696,980,976.6846403640935,511,10.180016422793287,0.975
514,11.075081229772966,980,976.616897079664,510,7.999859511903959,0.976
515,10.271616900161444,981,976.5490871960557,510,5.954897030637439,0.977
511,9.881414331672667,981,976.4812109270761,510,4.092926207085914,0.978
508,10.188635050015705,981,976.4132684871984,510,2.450400897625472,0.979
506,10.362361528566495,980,976.3452600915612,509,1.0525715432052483,0.98
506,10.227731371745929,980,976.2771859559666,508,-0.08595028750947588,0.981
508,10.461632953008902,980,976.2090462968799,507,-0.9603406564901958,0.982
507,10.832930609572923,980,976.1408413314289,506,-1.5745458560089163,0.983
510,11.26043284192761,980,976.0725712774038,504,-1.9401901817518534,0.984
508,12.096002498570154,980,976.004236353256,504,-2.07546665163347,0.985
510,12.523618063810973,980,975.9358367780973,503,-2.00403697861418,0.986
509,12.961875801665919,980,975.8673727716981,503,-1.7539426050222255,0.987
514,13.242848793016869,980,975.7988445544883,503,-1.3565136234099446,0.988
520,13.13255612800279,980,975.7302523475545,503,-0.8452571322781667,0.989
522,13.30730743696856,980,975.6615963726407,504,-0.25470991266719223,0.99
528,14.800539737375013,980,975.592876852147,504,0.38074916909658785,0.991
530,16.7311318437075,980,975.5240940091287,505,1.028115564564135,0.992
526,18.05810069691205,980,975.4552480672958,507,1.6569730440729866,0.993
524,18.69431587681255,980,975.3863392510127,509,2.2406529418497025,0.994
524,18.89000473023129,980,975.3173677852963,510,2.757267282469695,0.995
512,18.99917678679725,980,975.2483338958143,511,3.1905327303643136,0.996
493,19.368947213046376,980,975.1792378088855,512,3.5303027910078395,0.997
480,19.71054583304123,979,975.1100797514789,513,3.7727401994690912,0.998
475,20.228733628955933,980,975.0408599512126,512,3.9200886271025497,0.999
473,21.137898866197663,979,974.9715786363537,511,3.980040021977157,1.0
496,22.625559449807458,979,974.9022360358173,509,3.9647372314930385,1.001
494,24.626234007786223,980,974.8328323791649,508,3.889494697191088,1.002
487,26.839141094341556,979,974.7633678966041,507,3.77135460654352,1.003
489,28.82509391980271,979,974.6938428189884,507,3.627614820128906,1.004
507,30.45665080360457,979,974.6242573778151,506,3.474465437791686,1.005
524,31.550068693249553,979,974.5546118052243,505,3.325854948815139,1.006
540,31.396290976465295,979,974.4849063339993,506,3.192678547962146,1.007
553,32.6174714543269,979,974.4151411975649,507,3.08234389625802,1.008
554,34.730925231523585,979,974.345316629986,507,2.998726578996375,1.009
551,37.30447021521111,979,974.2754328659666,508,2.9424835759554364,1.01
550,39.51488544869859,979,974.2054901408492,510,2.9116542188479277,1.011
541,41.40660605432632,979,974.1354886906142,510,2.90244918039738,1.012
521,43.340377238515266,979,974.065428751879,511,2.910112006506245,1.013
489,44.90520292421672,979,973.9953105618964,511,2.929736461509474,1.014
427,45.76930626558654,979,973.9251343585546,512,2.9569366858530373,1.015
408,46.06364979964765,979,973.8549003803754,511,2.988293711336608,1.016
439,45.83749364027766,979,973.7846088665136,510,3.021537836499075,1.017
478,45.88854400592846,979,973.7142600567548,508,3.05546768996911,1.018
499,46.2175311838574,979,973.6438541915147,508,3.0896477854465996,1.019
518,46.949417909875855,979,973.5733915118392,507,3.1239596912555117,1.02
530,48.59428603537492,978,973.5028722594027,506,3.158101547790636,1.021
533,50.54354157419807,979,973.4322966765073,506,3.1911344320056494,1.022
536,51.582817230944265,978,973.3616650060819,506,3.221163188201807,1.023
559,52.16853759417193,978,973.2909774916809,507,3.24521628955842,1.024
583,51.946669910103445,978,973.2202343774836,507,3.259357442851809,1.025
611,51.469655375649204,978,973.1494359082936,508,3.259025798358122,1.026
615,52.051634612100884,979,973.0785823295374,508,3.2395670417874776,1.027
612,52.916878250859334,978,973.0076738872636,510,3.196888334819447,1.028
591,53.49330196487552,979,972.9367108281414,511,3.1281485427715823,1.029
571,53.8715940527987,978,972.8656933994595,511,3.0323837862911724,1.03
502,54.04038837612686,978,972.7946218491257,511,2.9109698893840736,1.031
440,53.9154296950148,978,972.723496425665,511,2.767839319920203,1.032
390,53.78052805368859,978,972.6523173782193,511,2.609398944409433,1.033
374,53.45213966523463,978,972.5810849565469,510,2.4441319688606447,1.034
387,53.16023920072725,979,972.5097994110197,508,2.281908358949904,1.035
408,52.649564090541595,978,972.4384609926228,507,2.133068817982584,1.036
403,52.00331870234953,978,972.3670699529534,505,2.0073829567183163,1.037
425,51.44510189047908,978,972.2956265442198,504,1.9130062643821326,1.038
451,51.30679060048109,978,972.2241310192397,504,1.8555674675015248,1.039
480,50.83964348320442,978,972.1525836314403,504,1.8375056133756817,1.04
510,49.172023548782335,978,972.0809846348556,504,1.8577464815209783,1.041
528,47.09781615606517,978,972.0093342841268,505,1.9117657339057919,1.042
537,45.70296573430021,978,971.937632834501,506,1.9920379380293403,1.043
558,45.04809706664362,978,971.8658805418288,508,2.0888222063830963,1.044
602,44.86821100369403,978,971.7940776625649,509,2.191192209162574,1.045
609,44.8265080006425,978,971.7222244537663,510,2.2881863384255112,1.046
579,44.474370806160216,978,971.6503211730908,511,2.3699376483468377,1.047
569,44.11522565221027,977,971.5783680787952,512,2.4286451983117994,1.048
536,43.574433477069356,978,971.5063654297352,512,2.4592680771838418,1.049
500,42.78545371543213,977,971.4343134853635,511,2.4598585213446804,1.05
467,41.752240969002905,977,971.3622125057292,510,2.4314978551212247,1.051
455,40.494885384372004,977,971.2900627514761,508,2.3778531007774157,1.052
460,39.63080928995581,977,971.2178644838424,506,2.30442515574663,1.053
475,39.42012730340315,977,971.1456179646594,505,2.2176025284054255,1.054
502,39.28593792086006,977,971.07332345635,504,2.123660154185662,1.055
523,39.11493174002643,977,971.0009812219278,504,2.027846462917912,1.056
538,39.152059373313236,977,970.9285915249966,504,1.9336838384794812,1.057
542,39.09093513814485,977,970.8561546297483,504,1.8425722608855615,1.058
545,39.15395599681981,977,970.7836708009618,505,1.7537397428620742,1.059
531,39.666916099570734,977,970.711140304002,507,1.6645327186641654,1.06
511,40.826606241251625,977,970.6385634048191,508,1.5709909325242761,1.061
518,41.59670531517858,977,970.5659403699464,509,1.4686110474738077,1.062
520,40.82860599715202,977,970.4932714664982,510,1.3531776067321961,1.063
518,39.298646496914465,977,970.4205569621703,510,1.221533414072576,1.064
516,38.773261391222434,977,970.3477971252377,510,1.0721743209994974,1.065
519,38.76511265843944,977,970.2749922245546,509,0.9055829931356374,1.066
514,39.1954673960018,977,970.2021425295527,508,0.7242576080707884,1.067
516,39.42060057911105,976,970.1292483102395,506,0.5324383620231014,1.068
513,39.52283157401793,977,970.0563098371974,504,0.33557998735455663,1.069
512,39.2605422725231,977,969.9833273815818,504,0.13965488825830463,1.07
510,37.9953088618884,976,969.9103012151205,503,-0.049607195726979074,1.071
511,36.51733166600618,977,969.8372316101119,503,-0.22743381176583546,1.072
511,35.60671080291653,976,969.7641188394242,503,-0.39058257440889665,1.073
523,34.88285260476631,976,969.6909631764939,503,-0.5377004396962889,1.074
537,34.67016625736163,976,969.6177648953245,503,-0.6694283314857824,1.075
551,34.618013796646835,976,969.544524270485,503,-0.7882424820865628,1.076
578,34.26170989892811,977,969.4712415771087,504,-0.8980556867227332,1.077
604,34.01819413100657,976,969.3979170908924,505,-1.0036310999731282,1.078
591,34.01368734601077,976,969.3245510880947,506,-1.1098861936896713,1.079
565,34.58914869660257,976,969.2511438455354,507,-1.221181728207294,1.08
511,35.806349332962554,976,969.1776956405932,507,-1.340696034561108,1.081
446,37.05218668941477,976,969.1042067512052,507,-1.4699757797338482,1.082
394,37.468612061600794,976,969.0306774558652,506,-1.6087308028368845,1.083
352,37.181225744393785,976,968.9571080336221,505,-1.7549059372488005,1.084
336,37.191637025804376,975,968.8834987640791,504,-1.9050227721451058,1.085
374,38.516280181004085,976,968.8098499273922,503,-2.054745748249595,1.086
448,40.32004896812684,975,968.7361618042685,502,-2.1995956928934404,1.087
514,42.48511609841191,975,968.6624346759647,502,-2.3357136741633777,1.088
535,44.31345621826899,975,968.5886688242856,500,-2.4605703199674362,1.089
536,45.68908928155986,975,968.5148645315836,499,-2.573520268702538,1.09
537,47.00089722386794,976,968.4410220807569,500,-2.676117703278385,1.091
545,47.82696698898798,976,968.3671417552479,500,-2.7721369225773542,1.092
547,47.896836041362945,975,968.2932238390423,501,-2.867280362278851,1.093
550,48.90131624133731,975,968.2192686166678,503,-2.968600669854463,1.094
543,49.711705914672166,975,968.1452763731927,504,-3.0837057736757294,1.095
539,49.948374983256635,975,968.0712473942249,504,-3.2198485539548227,1.096
537,49.99206311298691,975,967.9971819659099,505,-3.3830198306653387,1.097
535,50.580746650104345,975,967.9230803749292,505,-3.5771624974743053,1.098
528,50.912826312899696,975,967.8489429084983,504,-3.8036072549002236,1.099
522,51.018557458321276,974,967.7747698543661,504,-4.060800443503297,1.1
541,51.15446825066365,975,967.7005615008142,503,-4.344356564646571,1.101
558,51.2717864690622,975,967.6263181366543,501,-4.647427050603833,1.102
568,51.39271755317263,974,967.5520400512266,500,-4.9613375590286894,1.103
579,51.36339048155012,974,967.4777275343988,499,-5.276413206416382,1.104
589,51.48632548099369,975,967.4033808765655,498,-5.582889077529796,1.105
578,52.01695872149558,974,967.3290003686463,497,-5.871794912214177,1.106
557,52.9386160420532,974,967.2545863020839,496,-6.135708392205865,1.107
518,51.99742825614115,975,967.1801389688427,496,-6.369289589166155,1.108
486,51.42000570440627,974,967.1056586614078,497,-6.569538255902641,1.109
427,50.87567707110399,975,967.0311456727828,497,-6.735753345422897,1.11
417,50.34384071300473,974,966.9566002964885,499,-6.869215909034686,1.111
397,49.56440340732343,974,966.8820228265613,500,-6.972655895718156,1.112
418,49.03662719460519,974,966.8074135575525,501,-7.049593658352744,1.113
436,49.148734328856484,974,966.7327727845272,502,-7.103662719502831,1.114
445,48.85720251553106,974,966.6581008030616,501,-7.138018300239464,1.115
463,48.65053999320205,974,966.5833979092416,500,-7.154916312080685,1.116
515,48.526758890129955,974,966.5086643996614,500,-7.155514107602791,1.117
557,48.29166647045023,974,966.4339005714222,499,-7.139904752838891,1.118
551,47.863442381993636,973,966.3591067221313,498,-7.107358862956916,1.119
522,47.399033664748885,973,966.2842831498999,497,-7.056717625526695,1.12
502,47.1337925848399,973,966.2094301533423,496,-6.986860433257878,1.121
473,47.136491916189215,973,966.1345480315742,497,-6.897162581794637,1.122
489,47.14121259022127,973,966.0596370842115,497,-6.787863946727646,1.123
522,47.38417440192374,972,965.9846976113687,497,-6.660287033581922,1.124
539,47.746110858673,972,965.9097299136566,497,-6.5168679555104765,1.125
553,48.278658235916694,972,965.8347342921817,498,-6.360991942428636,1.126
580,48.465757364579844,972,965.759711048544,499,-6.196653096948501,1.127
601,48.81413372162797,972,965.6846604848351,500,-6.027984729926022,1.128
594,49.43382163103427,973,965.6095829036371,502,-5.858729153734637,1.129
592,48.70426298709215,972,965.53447860802,502,-5.691730220739946,1.13
555,47.32012358637481,973,965.4593479015406,503,-5.528534218475544,1.131
495,45.94381205077523,972,965.3841910882423,503,-5.36917297677789,1.132
422,45.23150286885294,972,965.3090084726531,502,-5.2121781794377915,1.133
382,45.452760975305075,972,965.2338003597837,502,-5.05484167646952,1.134
363,46.44757452815234,972,965.1585670551256,501,-4.893698573085799,1.135
416,47.48487063802919,972,965.0833088646498,499,-4.725174030113502,1.136
476,49.00434179829173,972,965.008026094805,499,-4.546306586152015,1.137
504,48.97808060360025,972,964.9327190525165,499,-4.355445049309755,1.138
523,47.98610255086961,972,964.8573880451837,499,-4.1528156345752,1.139
528,47.01696526651946,971,964.7820333806786,499,-3.94087085370265,1.14
534,45.858945639990694,971,964.7066553673445,499,-3.7243580510420187,1.141
535,45.4984755111316,971,964.6312543139943,500,-3.510078840114819,1.142
529,46.12691574799273,971,964.5558305299091,501,-3.306347747279684,1.143
528,45.73875783457116,971,964.4803843248365,502,-3.122196468463707,1.144
533,45.51171864393835,971,964.4049160089884,504,-2.9664056385875575,1.145
540,46.0506682103127,970,964.3294258930413,505,-2.846474113740651,1.146
540,47.24158712051943,971,964.2539142881332,506,-2.7676516769958845,1.147
548,47.96554190699862,971,964.1783815058619,507,-2.732161129465979,1.148
548,49.20909832014592,970,964.1028278582833,506,-2.738718339306498,1.149
550,50.7576181185642,970,964.0272536579103,505,-2.7824252944733137,1.15
551,51.56927989740583,970,963.9516592177108,505,-2.855066038867345,1.151
578,51.43912264423029,970,963.8760448511063,504,-2.945785571864772,1.152
598,50.9492471727973,970,963.8004108719698,502,-3.0420845893408903,1.153
547,51.65377466506742,969,963.724757594625,500,-3.131023573460718,1.154
517,52.73306073141587,970,963.6490853338437,500,-3.2005020319983792,1.155
516,53.52605803404017,969,963.5733944048447,499,-3.2404667311153066,1.156
517,54.19395725489688,970,963.4976851232927,499,-3.243909544312304,1.157
495,55.012832619595414,969,963.4219578052957,499,-3.2075401739354374,1.158
431,53.73761810756691,969,963.3462127674037,499,-3.132057088245264,1.159
386,51.418634672807286,969,963.2704503266071,500,-3.021986446035432,1.16
336,49.07852865775765,969,963.1946708003355,502,-2.8851091884831535,1.161
410,47.69315188588987,969,963.1188745064549,504,-2.7315464042339337,1.162
464,47.54365561374237,969,963.0430617632667,506,-2.5726165295824748,1.163
496,47.87258909599521,968,962.9672328895065,507,-2.4196073985782625,1.164
518,48.05451580893152,969,962.8913882043418,507,-2.2826148791783916,1.165
540,48.352770096746184,968,962.8155280273705,507,-2.1695851878521717,1.166
548,48.51701965007086,968,962.7396526786189,506,-2.0856630103630422,1.167
547,49.26591303711985,967,962.6637624785403,505,-2.0328997421921526,1.168
544,50.683224691089244,967,962.587857748013,504,-2.010324552475767,1.169
557,52.70161368166754,968,962.5119388083385,503,-2.014333776330599,1.17
580,55.92879696878576,968,962.4360059812392,502,-2.039317464811814,1.171
583,59.60324101665181,967,962.3600595888573,501,-2.0784193821666017,1.172
596,63.082466427934826,967,962.2840999537538,501,-2.1243197019478064,1.173
605,65.21035639851357,967,962.2081273989049,501,-2.1699377902858825,1.174
589,64.88514584466306,967,962.1321422477024,501,-2.208973846370249,1.175
551,66.89877441609055,967,962.0561448239512,502,-2.2362391186158423,1.176
467,71.60207406900453,967,961.9801354518673,503,-2.2477600615919675,1.177
387,77.60287146378528,967,961.9041144560757,504,-2.2406769929042794,1.178
374,83.01744593367847,966,961.8280821616091,504,-2.212987551532108,1.179
393,88.01433288195885,966,961.7520388939056,505,-2.163205363887899,1.18
433,91.45600392694614,967,961.6759849788068,506,-2.090012718785026,1.181
456,92.48776196995233,966,961.5999207425566,507,-1.9919829528273063,1.182
491,93.00382293592452,966,961.523846511799,506,-1.867434443815942,1.183
528,94.25254713590046,966,961.4477626135766,505,-1.7144540755014297,1.184
541,94.45617355761713,965,961.3716693753289,504,-1.531095915855571,1.185
540,93.55441491273564,965,961.2955671248899,504,-1.3157265521311685,1.186
538,91.80956713640292,966,961.2194561904864,504,-1.0674599893021595,1.187
536,91.15545084931207,965,961.1433369007374,503,-0.7866077713409697,1.188
531,91.67172697736677,965,961.0672095846509,503,-0.4750649961871827,1.189
537,92.54609286333557,965,960.991074571623,503,-0.1365586735745205,1.19
540,93.97328070949398,965,960.9149321914356,504,0.22329972132445797,1.191
563,95.26823471940392,965,960.8387827742545,504,0.597191475943111,1.192
597,96.3036811029867,964,960.7626266506272,505,0.9765009276243631,1.193
616,97.09618572927417,964,960.686464151482,507,1.3519285378483676,1.194
691,97.12497937482586,964,960.6102956081257,509,1.7142440955371665,1.195
708,96.35647493370584,964,960.5341213522422,511,2.0550906919375467,1.196
710,95.45523648474126,964,960.4579417158905,511,2.3677348745788995,1.197
637,94.09608491063226,963,960.3817570315025,511,2.6476600435181545,1.198
527,92.5978553210165,963,960.3055676318814,511,2.892920103971199,1.199
359,91.0683592134223,963,960.2293738501995,511,3.1042042977668616,1.2
237,90.53195053291769,963,960.153176019997,510,3.284604446692485,1.201
133,90.97481613926637,963,960.0769744751792,509,3.4391157832620416,1.202
152,91.14971012272348,963,960.0007695500149,508,3.5739374299107607,1.203
217,89.87279925735156,962,959.9245615791345,508,3.6956645135895942,1.204
329,88.09885488727953,963,959.848350897529,507,3.810477334740822,1.205
450,86.18873979745008,962,959.7721378405475,507,3.9234321839034596,1.206
538,84.60083328928364,962,959.6959227438954,507,4.037944078838191,1.207
589,83.7256572196989,962,959.6197059436324,507,4.155526163215754,1.208
594,83.86672579030646,962,959.543487776171,508,4.275816503533003,1.209
594,84.52047823440023,962,959.467268578274,510,4.396883794549347,1.21
592,85.82749972824271,962,959.3910486870528,511,4.515763442783758,1.211
585,87.5453163645011,962,959.3148284399654,513,4.629140614471574,1.212
579,88.73382315548389,962,959.2386081748145,513,4.734073811817189,1.213
577,89.5424342582637,961,959.1623882297471,514,4.828646447789778,1.214
590,89.71018348880237,961,959.0861689432517,513,4.91244597248321,1.215
603,89.50261742200352,961,959.0099506541567,513,4.986797493461229,1.216
601,90.58871905478438,961,958.933733701627,513,5.0547159028213065,1.217
587,92.57432113567323,961,958.8575184251633,512,5.120580966435662,1.218
547,94.64666427092298,960,958.7813051646,511,5.1895785501005145,1.219
511,95.30551937265652,960,958.7050942601023,509,5.266984631075617,1.22
496,93.29244411632237,960,958.6288860521654,508,5.357393500214138,1.221
514,89.66109375966242,960,958.5526808816126,508,5.464003010983049,1.222
523,85.91638441485254,960,958.4764790895932,509,5.588063713845756,1.223
500,83.83879567303657,960,958.4002810175806,510,5.728574855360469,1.224
472,84.47919042435917,960,958.3240870073695,510,5.882273709304876,1.225
455,82.71369013114631,960,958.2478974010739,510,6.043924050677988,1.226
460,78.25725784690474,960,958.1717125411258,511,6.206871778589238,1.227
452,71.87957807168118,960,958.0955327702728,513,6.363803339028703,1.228
464,65.55381834965908,959,958.0193584315772,515,6.507615899805006,1.229
489,60.57781383117276,959,957.9431898684129,515,6.632289304900323,1.23
513,57.51798653877004,959,957.867027424465,516,6.733643713906708,1.231
528,56.89082301310493,959,957.7908714437275,516,6.809877682796523,1.232
542,56.525145724403586,959,957.7147222705006,516,6.861808851588817,1.233
561,54.98597924475236,959,957.6385802493891,515,6.892778950693314,1.234
605,53.38151424705375,959,957.5624457253,513,6.908230847860774,1.235
627,51.81685311984797,959,957.486319043441,512,6.915011790431852,1.236
595,50.16876966725698,959,957.4102005493174,511,6.920496860395959,1.237
579,48.738205954676545,959,957.3340905887318,510,6.931652956772493,1.238
536,47.40104689356318,958,957.2579895077806,509,6.954171887574335,1.239
493,46.479402027020555,958,957.181897652853,510,6.991790701010438,1.24
423,45.4264710614036,958,957.105815370628,510,7.045890353493692,1.241
353,44.22348314367571,958,957.0297430080735,511,7.115424286046959,1.242
317,42.60661135423993,958,956.953680912445,512,7.197182364997174,1.243
362,41.87202062052545,958,956.8776294312818,513,7.286349652539505,1.244
428,41.96991172549309,957,956.8015889124068,515,7.3772794820459096,1.245
481,42.60085907197053,957,956.7255597039235,516,7.464370881540345,1.246
520,42.86307035261763,957,956.6495421542145,517,7.542925289045891,1.247
546,43.43967292322899,957,956.5735366119384,517,7.609859601219758,1.248
558,43.837761287083815,957,956.4975434260285,517,7.664172613267139,1.249
558,43.667428995124084,957,956.4215629456911,516,7.707097302401038,1.25
559,42.77049856640837,956,956.3455955204024,515,7.741916672606051,1.251
555,41.573050773819,957,956.269641499907,514,7.773468963297422,1.252
550,40.48233534935653,957,956.1937012342165,512,7.80741175492402,1.253
544,39.25154279363915,956,956.1177750736066,512,7.849347597200421,1.254
536,38.224617157918836,957,956.0418633686159,512,7.903931680450004,1.255
532,37.8094930243411,956,955.9659664700425,511,7.974082935529984,1.256
527,37.903440787648954,956,955.8900847289436,511,8.060405324644671,1.257
519,37.78418286762258,956,955.8142184966322,511,8.160899650064579,1.258
522,37.29642370406959,956,955.7383681246749,512,8.271011299350192,1.259
520,36.7258720766069,956,955.662533964891,513,8.38401844101698,1.26
518,35.97510588615841,956,955.5867163693503,514,8.491721671801184,1.261
515,35.0470232012004,956,955.5109156903706,516,8.58535518755558,1.262
520,34.44169875741261,956,955.435132280516,517,8.656607029041485,1.263
530,33.92476478193004,955,955.3593664925943,519,8.698616943387558,1.264
544,33.58050166339829,956,955.2836186796552,519,8.70681879925806,1.265
540,33.55856358255963,955,955.2078891949894,518,8.679512447095082,1.266
525,33.044168326093434,955,955.1321783921255,517,8.618086397834848,1.267
476,32.07165357431494,955,955.0564866248276,516,8.526862140232357,1.268
480,30.224289856626058,955,954.9808142470935,515,8.412584110752329,1.269
475,28.22176294034573,955,954.905161613152,513,8.28362693513899,1.27
483,27.133770448709786,955,954.8295290774622,512,8.14902718778354,1.271
481,26.83314187534755,955,954.7539169947107,511,8.017467062863068,1.272
490,26.747764877564357,954,954.6783257198098,511,7.896340048978075,1.273
505,26.100926303049338,954,954.6027556078946,511,7.791013730387758,1.274
513,25.555652344956798,954,954.5272070143212,511,7.704374846765665,1.275
512,24.827655137031044,954,954.4516802946656,512,7.636701869682466,1.276
510,24.250551124159863,954,954.3761758047209,513,7.58586646047773,1.277
511,23.931507058756313,953,954.3006939004963,514,7.547822664133072,1.278
514,23.990713852327982,954,954.2252349382143,515,7.5173065687439085,1.279
516,24.6360496701687,953,954.1497992743078,516,7.488643964777607,1.28
519,25.49798471523941,953,954.0743872654186,516,7.456552484916427,1.281
519,25.90427495205936,954,953.9989992683948,518,7.4168289768012405,1.282
517,25.839323498537784,953,953.9236356402895,516,7.366831854556447,1.283
529,25.698377635013497,953,953.8482967383585,515,7.305699980721692,1.284
569,25.717161040820116,953,953.772982920058,514,7.234290452833865,1.285
577,25.776649882975967,953,953.6976945430424,513,7.154860783151668,1.286
568,26.045197163729917,953,953.6224319651623,512,7.070558022138355,1.287
550,26.218882945066344,953,953.5471955444625,511,6.98480208654111,1.288
523,26.25441275579836,953,953.4719856391805,511,6.900660547738439,1.289
492,25.950311419119128,953,953.3968026077433,511,6.820307812656426,1.29
453,25.525953960783227,953,953.3216468087659,511,6.744644959398596,1.291
401,25.8745891348029,952,953.2465186010481,511,6.6731309434627715,1.292
413,27.295005182924463,952,953.1714183435737,511,6.603845717159855,1.293
463,27.592117050799406,952,953.0963463955076,512,6.5337744932699735,1.294
485,27.108361721000637,952,953.0213031161945,513,6.459272187974625,1.295
498,27.24321339488967,952,952.9462888651558,515,6.376640310525049,1.296
502,29.415044336905638,952,952.8713040020872,515,6.282729068014019,1.297
507,32.42165973150564,952,952.7963488868577,515,6.175470170084586,1.298
488,35.005031379517895,952,952.7214238795063,515,6.054254144466434,1.299
499,37.1686838880322,952,952.6465293402401,515,5.920089151646566,1.3
530,38.02615868534887,951,952.5716656294319,513,5.775511754274548,1.301
540,38.08524129945377,952,952.4968331076191,512,5.624258082139589,1.302
552,38.6708133416416,951,952.4220321355011,511,5.470740660753607,1.303
576,39.80429202307552,951,952.3472630739379,511,5.319406040928794,1.304
577,41.005186398472894,952,952.2725262839472,509,5.174066543209941,1.305
551,42.30972232735215,951,952.1978221267021,508,5.037304192325232,1.306
520,43.70801439739431,951,952.1231509635294,508,4.910036793822484,1.307
510,45.03038535010324,951,952.048513155906,509,4.7913155343076745,1.308
517,46.69385153555436,951,951.9739090654576,510,4.678391343641573,1.309
521,48.11023923082894,951,951.8993390539569,510,4.567047738598732,1.31
523,48.14056843759101,951,951.8248034833209,511,4.452158544632416,1.311
522,47.17610774607167,951,951.7503027156098,512,4.328396880571105,1.312
511,46.5781281275076,950,951.6758371130235,513,4.191000856111918,1.313
507,46.902353080296194,951,951.6014070378999,513,4.036492982063386,1.314
499,48.18981078491423,950,951.5270128527128,513,3.8632553156014904,1.315
556,49.51952801413785,950,951.4526549200701,513,3.671881009412918,1.316
583,49.65432454189775,951,951.3783336027118,512,3.465253106292782,1.317
559,48.148518295373336,950,951.3040492635072,510,3.248338942617339,1.318
518,46.44902829767278,950,951.229802265453,509,3.0277281369259215,1.319
465,45.65462622202096,950,951.1555929716717,508,2.8109777419777715,1.32
364,45.58124322579348,950,951.0814217454086,507,2.6058534959211443,1.321
326,45.65401915416456,950,951.0072889500303,507,2.4195670919346273,1.322
353,45.700493593675866,950,950.9331949490215,506,2.2581055589756236,1.323
391,45.76881604385325,950,950.8591401059838,506,2.125732574606704,1.324
465,45.537009217545574,950,950.7851247846331,507,2.024716030485226,1.325
509,45.44907905301275,950,950.711149348798,507,1.9553046168544022,1.326
543,45.17715205267,950,950.6372141624166,508,1.9159421827603456,1.327
564,44.69355283031061,949,950.5633195895343,509,1.9036765377881821,1.328
573,43.91759524072305,949,950.489465994302,510,1.9146935173206434,1.329
577,42.6112335313146,950,950.4156537409743,511,1.9448909405710773,1.33
589,41.26770505187792,949,950.3418831939068,511,1.9904030314022472,1.331
583,40.52697621628438,949,950.2681547175537,511,2.0479952765471308,1.332
601,40.3874431114557,949,950.1944686764651,511,2.115271750326732,1.333
600,40.5817897576083,949,950.120825435285,510,2.1906682808720466,1.334
572,40.75677876987602,949,950.0472253587494,508,2.2732404654583744,1.335
531,40.836358569777865,948,949.9736688116844,508,2.3622897727493664,1.336
488,40.55995873863601,948,949.9001561590032,508,2.4568978015834504,1.337
457,40.46633473210849,948,949.8266877657035,507,2.5554532722425374,1.338
439,40.439805874365874,948,949.7532639968663,507,2.655257016186645,1.339
430,40.63206032617422,948,949.6798852176544,507,2.752279115138708,1.34
451,40.87933943667834,948,949.6065517933092,507,2.841122228305533,1.341
481,40.27514789193888,948,949.5332640891481,508,2.9152181107237105,1.342
504,38.80615690785616,948,949.460022470562,509,2.9672527021605073,1.343
524,37.83684882814677,948,949.386827303014,510,2.989782610656454,1.344
538,37.63414355400956,948,949.3136789520368,510,2.9759770638272998,1.345
533,36.7823348998697,948,949.2405777832304,511,2.9203989664722703,1.346
527,34.09888071249422,948,949.1675241622604,512,2.8197292123718314,1.347
524,30.769160127169908,948,949.0945184548561,512,2.6733402852565358,1.348
527,27.7258200497537,948,949.021561026807,512,2.4836381415992164,1.349
524,25.779932550013367,947,948.9486522439602,511,2.2561150915031303,1.35
523,25.05817816308847,947,948.8757924722189,510,1.9990892644692408,1.351
521,25.213615487865393,947,948.8029820775407,509,1.723144131629558,1.352
519,24.64142193798047,947,948.7302214259355,508,1.4403186722625245,1.353
516,23.974809375664385,947,948.6575108834637,507,1.163129732061685,1.354
515,23.817903609936245,947,948.5848508162326,506,0.903529390967038,1.355
519,23.416293121776775,947,948.5122415903942,504,0.6719101119763402,1.356
518,22.390535827418784,947,948.4396835721438,504,0.47626829293226713,1.357
524,21.067685993752313,947,948.3671771277179,504,0.3216217652636229,1.358
531,19.807621828931726,947,948.294722623392,504,0.20974862841692415,1.359
528,18.26552251145301,947,948.2223204254774,505,0.13927588477415997,1.36
515,17.28654375496752,947,948.1499709003195,506,0.10610178259579194,1.361
519,17.23776922498743,947,948.0776744142956,508,0.10409191363263844,1.362
516,17.09888118413405,947,948.0054313338126,509,0.12595212794849456,1.363
498,16.255877070515215,947,947.9332420253046,510,0.16415702201714036,1.364
493,15.344820311355116,946,947.8611068552304,511,0.21180578761792487,1.365
494,14.376981049417871,946,947.7890261900715,511,0.2632895735444742,1.366
505,13.874506217891343,946,947.7170003963299,510,0.3146848990190859,1.367
511,13.454502126432262,946,947.6450298405263,508,0.36383187336855455,1.368
512,13.977155488040708,946,947.5731148891974,507,0.41010708098094173,1.369
509,14.2524942298304,946,947.5012559088941,506,0.4539496182195825,1.37
516,14.363598997900592,946,947.4294532661778,505,0.49623551019748,1.371
524,14.436547707964102,946,947.3577073276199,505,0.537614689033445,1.372
505,15.011545407626006,946,947.2860184597986,504,0.5779249124867485,1.373
492,15.919894139819991,946,947.2143870292966,505,0.6157808744446875,1.374
499,16.27682576256055,946,947.1428134026982,505,0.6484080667159066,1.375
521,16.761390026156654,946,947.0712979465869,505,0.6717539417932911,1.376
511,18.42759271474553,946,946.9998410275441,507,0.6808681397197646,1.377
486,20.233222210140763,946,946.9284430121467,508,0.6705034492532044,1.378
454,21.317859465159607,946,946.8571042669646,509,0.635854221658488,1.379
461,21.319450570152913,945,946.7858251585589,511,0.5733240844633225,1.38
483,21.961783095776312,945,946.7146060534785,511,0.4812048967662988,1.381
519,22.33100399788289,945,946.6434473182591,511,0.36015710734594764,1.382
534,22.26106310839603,945,946.5723493194196,510,0.2134082004200155,1.383
524,22.237043499698153,945,946.5013124234606,508,0.04662727564654482,1.384
519,22.6086282060557,945,946.4303369968624,507,-0.13251716383266782,1.385
529,23.473482636858574,945,946.3594234060827,505,-0.31506185017384297,1.386
529,24.720734306757798,944,946.2885720175542,505,-0.49162474689824154,1.387
528,26.137561052171616,944,946.2177831976833,504,-0.6533409144753984,1.388
540,28.191011352314913,944,946.1470573128471,504,-0.79274393324534,1.389
551,30.09497725718674,944,946.076394729391,504,-0.9044908519328518,1.39
549,31.13691547661491,944,946.0057958136264,504,-0.9858516260185906,1.391
529,30.830541978564547,945,945.9352609318285,504,-1.0369132694406784,1.392
471,31.983584049503623,945,945.864790450234,504,-1.0604808966528754,1.393
494,33.810487978448734,945,945.7943847350382,505,-1.0616900812891183,1.394
483,35.77709111305455,944,945.7240441523928,506,-1.0473759606832234,1.395
495,38.711292096300376,944,945.653769068404,507,-1.0252724451455713,1.396
549,41.44833918220528,945,945.5835598491303,508,-1.0031366131585087,1.397
568,42.73700564623298,944,945.5134168605799,509,-0.9879049628649879,1.398
539,44.51751702566999,944,945.443340468709,510,-0.9849865127236942,1.399
481,45.221968913575715,944,945.3733310394197,509,-0.9977814031279459,1.4
422,45.240708660882426,944,945.303388938557,508,-1.0274832285503557,1.401
416,45.48556540441178,944,945.2335145319074,507,-1.0731821567651494,1.402
455,46.319212418608856,944,945.1637081851966,505,-1.1322406899189035,1.403
509,46.779830425375884,943,945.0939702640864,504,-1.2008733831134637,1.404
545,46.76972030010593,944,945.0243011341731,504,-1.274833665220747,1.405
530,46.70791906415625,943,944.9547011609847,503,-1.3500995761925503,1.406
513,47.03571169881431,944,944.8851707099782,503,-1.4234561590728052,1.407
515,47.601035282262295,943,944.8157101465387,503,-1.4928924365780047,1.408
548,47.715303153323404,943,944.746319835976,504,-1.5577609922485107,1.409
564,48.105144362888296,943,944.6770001435219,504,-1.6186839033833278,1.41
575,48.57706423868575,943,944.6077514343285,505,-1.6772258249264884,1.411
584,49.09583744247265,943,944.5385740734652,506,-1.7353889317902869,1.412
615,49.54637897880553,943,944.4694684259175,508,-1.7950112813683115,1.413
615,50.17906945108795,943,944.4004348565844,508,-1.8571666142691952,1.414
576,50.409916141705466,943,944.331473730276,508,-1.9216663738953272,1.415
509,50.27777258354428,943,944.262585411711,508,-1.9867516757215562,1.416
441,49.74030500314204,942,944.193770265515,508,-2.049035395844198,1.417
417,50.73383663895489,942,944.1250286562175,506,-2.10371725651205,1.418
401,51.380239517222215,942,944.0563609482494,505,-2.1450537260432103,1.419
364,52.324277054655546,942,943.9877675059407,504,-2.167025617355839,1.42
357,52.8805443860632,942,943.9192486935185,503,-2.164115569162202,1.421
433,53.10036290631861,942,943.8508048751045,503,-2.132090426199237,1.422
411,52.44642283342568,942,943.7824364147139,503,-2.0686822030028025,1.423
459,51.55853917287347,942,943.7141436762519,502,-1.9740745290749881,1.424
513,51.113381795069664,942,943.6459270235114,503,-1.851125871475256,1.425
535,50.62564912421522,942,943.5777868201715,504,-1.705292920735126,1.426
552,48.97575312371636,942,943.5097234297947,504,-1.5442542626437608,1.427
559,47.22435348235197,942,943.4417372158246,506,-1.3772722934306165,1.428
562,46.19381859684272,942,943.3738285415828,508,-1.2143657344790948,1.429
558,46.28371191149049,942,943.3059977702671,509,-1.0653912405894594,1.43
553,45.70826187968595,942,943.2382452649496,509,-0.9391457695820994,1.431
548,45.28556938760782,942,943.1705713885744,509,-0.8425978955669916,1.432
544,45.29277281589805,942,943.102976503956,509,-0.7803359494773002,1.433
544,45.16944245713032,942,943.0354609737753,508,-0.7542883206660247,1.434
548,44.445203537978585,942,942.9680251605788,507,-0.7637333138951298,1.435
555,43.36553904002331,941,942.9006694267755,507,-0.8055788390334566,1.436
558,42.136036637160245,941,942.8333941346349,506,-0.8748606517732551,1.437
559,40.610210385608006,941,942.7661996462849,505,-0.96538501079927,1.438
559,38.58431298069243,941,942.6990863237093,504,-1.070428812851712,1.439
543,36.526325794960954,941,942.6320545287452,504,-1.1834078940309682,1.44
505,35.25855843714851,941,942.5651046230812,504,-1.2984326847078143,1.441
451,35.35808824096753,941,942.4982369682535,504,-1.4106894714108604,1.442
447,34.14462440838221,941,942.4314519256445,504,-1.5166127044533813,1.443
445,32.36508760190793,941,942.3647498564804,505,-1.613845046810954,1.444
463,30.59694005070819,941,942.2981311218298,506,-1.7010132560122584,1.445
483,27.943522075472107,941,942.2315960826013,508,-1.7773760150918285,1.446
511,25.377571217266176,941,942.1651450995404,508,-1.8424202825940386,1.447
524,24.32373216969994,941,942.0987785332275,508,-1.895490740565554,1.448
522,23.11120592924728,941,942.0324967440753,508,-1.9355292940286466,1.449
523,22.473404267858207,941,941.966300092327,508,-1.9609793424590671,1.45
523,22.40927556571742,941,941.9001889380532,506,-1.969877584592096,1.451
523,21.977403945579102,941,941.8341636411512,505,-1.960120559907883,1.452
521,21.418740880984867,940,941.7682245613414,504,-1.9298600232994514,1.453
520,21.170912910505862,941,941.7023720581655,504,-1.877956767497919,1.454
518,20.79507066203186,941,941.6366064909846,504,-1.8044116244240915,1.455
516,20.313805762155877,940,941.5709282189765,504,-1.7106962560634145,1.456
515,20.056942819157335,941,941.5053376011329,504,-1.599921979309971,1.457
512,20.01208136197808,940,941.4398349962578,504,-1.476807663339018,1.458
514,20.760492320963333,941,941.3744207629644,505,-1.3474341626163933,1.459
518,22.1859178730175,940,941.3090952596726,506,-1.2188007505639955,1.46
517,23.02002027542892,940,941.2438588446074,507,-1.0982265477823578,1.461
515,23.129713773191632,940,941.1787118757968,508,-0.9926636492066222,1.462
519,22.459244737127786,940,941.1136547110691,508,-0.9080044367950096,1.463
518,23.637334188329664,940,941.048687708051,509,-0.8484704332000971,1.464
520,26.176484388831174,940,940.9838112241662,510,-0.8161633926103121,1.465
518,29.352524860630584,940,940.9190256166318,509,-0.8108422580243072,1.466
511,32.79389264421939,940,940.8543312424567,509,-0.8299635966692834,1.467
508,33.572587426710676,940,940.789728458439,508,-0.8689900230817498,1.468
500,32.50661164045057,940,940.7252176211624,506,-0.9219345723594894,1.469
497,32.265521561353516,940,940.6607990869957,505,-0.9820746511583145,1.47
496,32.534583678261015,939,940.5964732120891,505,-1.0427433928197678,1.471
485,33.27494947544435,939,940.5322403523725,504,-1.098094132552685,1.472
481,34.13341061136412,939,940.4681008635525,504,-1.143737344488419,1.473
490,34.40634208373529,939,940.4040551011111,504,-1.1771669729845304,1.474
505,34.85715449519892,940,940.3401034203027,504,-1.1979208253627178,1.475
513,35.94281130690619,940,940.2762461761531,505,-1.2074538261790684,1.476
527,37.62819800417603,940,940.2124837234559,505,-1.2087400896640057,1.477
547,40.19836439151525,940,940.1488164167702,507,-1.2056564133462349,1.478
542,43.21764982918718,939,940.0852446104182,509,-1.2022320584247514,1.479
535,45.66841308710346,940,940.0217686584832,510,-1.2018730537126758,1.48
535,46.657310635056284,939,939.9583889148073,510,-1.2066784312613041,1.481
547,47.738529412496035,939,939.8951057329892,510,-1.2169563255195104,1.482
573,50.5147570476347,940,939.8319194663826,509,-1.2310194065997762,1.483
616,54.480825614430245,939,939.7688304680935,508,-1.2452968025424933,1.484
579,58.95082291446701,939,939.7058390909775,507,-1.2547518521646621,1.485
560,61.887571381082346,939,939.6429456876375,506,-1.2535500498159544,1.486
496,63.3190187779179,939,939.5801506104215,504,-1.2358859161987024,1.487
406,63.71116740804235,939,939.5174542114211,504,-1.1968556550993603,1.488
336,64.17327393395325,939,939.4548568424683,504,-1.133256956594737,1.489
321,64.85785951771621,939,939.392358855134,505,-1.0442087866623244,1.49
321,65.70900203925278,939,939.3299606007255,504,-0.9315098694592493,1.491
406,66.64951658417505,939,939.2676624302834,505,-0.7996892143997613,1.492
524,67.55104776222285,938,939.2054646945801,506,-0.6557397257893606,1.493
564,68.26820226181704,939,939.1433677441174,507,-0.5085631346874318,1.494
575,68.75670804679693,938,939.0813719291244,508,-0.36818877626915947,1.495
575,69.14126872618286,938,939.0194775995549,510,-0.24485668302942645,1.496
556,69.1437644282401,939,938.9576851050853,510,-0.14807295416182667,1.497
529,68.7531738589701,938,938.8959947951124,511,-0.08574915385102035,1.498
535,68.25754742220734,938,938.8344070187502,511,-0.06352622702266528,1.499
569,68.17025668915187,938,938.7729221248287,510,-0.08435815594688764,1.5
598,68.42505075351568,938,938.7115404618916,509,-0.14839484719460763,1.501
644,68.6195991752312,938,938.6502623781932,508,-0.25316301650215955,1.502
663,68.42632491175917,938,938.5890882216968,507,-0.39400473413749315,1.503
636,67.82534708797675,937,938.5280183400718,507,-0.5647020060372258,1.504
559,67.19246288332498,937,938.4670530806917,505,-0.75819609941231,1.505
454,66.80647071608024,937,938.4061927906318,504,-0.9673031073620879,1.506
367,66.42139906730473,938,938.3454378166665,504,-1.1853320113626469,1.507
309,66.10088055518243,938,938.2847885052666,504,-1.4065281882489902,1.508
284,65.19231477246082,937,938.2242452025985,505,-1.6262934172624288,1.509
359,63.46628314652283,938,938.1638082545207,505,-1.841169685754489,1.51
434,62.12222253263297,937,938.103478006583,506,-2.0486122954495514,1.511
489,61.23813912016094,938,938.0432548040229,508,-2.2466114216805644,1.512
539,61.15789834157286,937,937.9831389917633,508,-2.4332453664944254,1.513
550,59.09144263469253,937,937.9231309144103,508,-2.606259491706473,1.514
561,55.71822429228079,937,937.8632309162512,508,-2.7627597371825394,1.515
564,51.99896098974097,937,937.8034393412524,508,-2.899089246567763,1.516
560,48.37015512897318,937,937.7437565330574,507,-3.0109249899556545,1.517
552,46.416871441474676,937,937.6841828349837,505,-3.093593840585024,1.518
551,46.1406570963987,937,937.6247185900203,504,-3.1425696274000114,1.519
547,45.05523757947525,937,937.5653641408253,503,-3.154080128022853,1.52
531,43.756507849852774,937,937.5061198297242,503,-3.1257321638025126,1.521
521,42.3966915780729,937,937.4469859987067,503,-3.0570581081099224,1.522
521,41.44722637211822,937,937.3879629894262,503,-2.949897925206049,1.523
532,41.02374133469992,937,937.3290511431958,503,-2.808553341088449,1.524
534,40.51717712629189,937,937.270250800987,504,-2.639680066178126,1.525
527,39.33728575364304,937,937.2115623034282,505,-2.45191637168406,1.526
524,37.631558616376054,937,937.1529859908011,505,-2.255278826494131,1.527
521,35.19737850954275,937,937.0945222030387,507,-2.060385508158784,1.528
519,32.21559308264059,936,937.0361712797232,508,-1.8775903126899502,1.529
513,29.824166377075198,936,936.9779335600844,509,-1.7161264096290703,1.53
507,28.833861339914627,936,936.9198093829958,510,-1.5833599947788293,1.531
498,27.94899289633273,936,936.8617990869732,510,-1.484245190256059,1.532
494,25.377934280747198,936,936.8039030101718,509,-1.421046776871755,1.533
499,21.70403739138156,936,936.7461214903846,508,-1.3933618524975158,1.534
509,17.582422312729392,936,936.6884548650402,507,-1.3984300015835522,1.535
512,14.764389912317101,936,936.6309034712012,506,-1.4316816624868698,1.536
512,13.30682301203883,936,936.5734676455615,505,-1.4874432806197389,1.537
514,13.080148391697156,936,936.5161477244433,505,-1.5597000949240576,1.538
516,12.89348669232151,936,936.4589440437952,504,-1.642814367114431,1.539
513,12.685193101301207,935,936.4018569391902,504,-1.7321074362389821,1.54
512,12.369207490863388,935,936.3448867458228,504,-1.82423571597602,1.541
511,11.6993262407682,936,936.2880337985068,505,-1.9173207412247126,1.542
511,10.885571515454277,935,936.2312984316737,506,-2.010828321324553,1.543
512,10.819190369943625,935,936.1746809793698,506,-2.105227397633047,1.544
511,11.822964338923848,936,936.1181817752546,507,-2.2014900682081757,1.545
514,13.585898511779254,935,936.0618011525985,508,-2.300516046310925,1.546
512,15.98052377537352,935,936.00553944428,509,-2.4025753554226075,1.547
513,18.670008396387814,935,935.9493969827837,509,-2.506861425143967,1.548
510,20.967156216614004,935,935.8933741001982,508,-2.6112321611749834,1.549
511,21.39827079525448,935,935.8374711282141,508,-2.7121894283531374,1.55
506,23.329028026348176,935,935.7816883981218,507,-2.805111187183543,1.551
499,27.273635035373935,935,935.7260262408088,505,-2.884711332191891,1.552
504,31.87762184472488,935,935.6704849867583,504,-2.9456664510403514,1.553
505,36.229346096553556,935,935.6150649660466,504,-2.9833217621984796,1.554
508,39.4297401559188,935,935.5597665083407,503,-2.994374854369799,1.555
523,41.68508143134589,935,935.5045899428951,503,-2.9774375859815763,1.556
522,42.33782312059645,935,935.4495355985507,503,-2.933392167790135,1.557
528,42.58489706523273,935,935.3946038037316,503,-2.865483587102569,1.558
528,43.673391845187524,935,935.3397948864439,504,-2.7791237144910967,1.559
520,45.4852526716144,935,935.2851091742733,505,-2.681419504456257,1.56
512,47.82058033839363,935,935.230546994383,507,-2.5804749354467655,1.561
499,50.136778321261886,935,935.1761086735107,508,-2.484548905331337,1.562
490,51.739473296206896,935,935.1217945379672,508,-2.401173630406141,1.563
479,52.542203839244735,935,935.0676049136334,509,-2.3363456355986925,1.564
475,52.54490427882129,934,935.0135401259591,510,-2.293892880988578,1.565
488,52.637792709599836,934,934.9596004999597,509,-2.275099042883865,1.566
514,52.95625964261312,935,934.9057863602144,508,-2.278632770334845,1.567
543,52.94316496312884,935,934.8520980308634,507,-2.3007894624108456,1.568
594,53.1267614442105,934,934.798535835607,506,-2.336011041451001,1.569
628,53.14867726782331,935,934.7451000977026,505,-2.3776123673957397,1.57
642,53.51438565039948,934,934.6917911399626,504,-2.418617429100308,1.571
647,53.99250052519424,934,934.6386092847521,504,-2.452597330210342,1.572
626,54.56003772070947,934,934.5855548539861,504,-2.47440571760732,1.573
544,55.23471446206496,934,934.5326281691283,504,-2.4807240417581427,1.574
390,55.80919704564237,934,934.4798295511886,504,-2.4703555060012645,1.575
297,56.1163265434359,934,934.4271593207211,504,-2.4442385766528956,1.576
267,56.977863067438896,934,934.3746177978223,505,-2.4051851055639344,1.577
283,57.18467963944772,934,934.3222053021275,507,-2.3573822833743394,1.578
343,57.83613106229421,934,934.2699221528096,508,-2.305729283303242,1.579
390,59.00316442882908,934,934.2177686685772,509,-2.2551040726732383,1.58
464,60.12463256441614,934,934.1657451676712,510,-2.2096677410133374,1.581
537,60.99240165696445,934,934.1138519678638,510,-2.172308823209791,1.582
584,62.02188242175798,934,934.0620893864558,509,-2.144308279002534,1.583
615,62.51294931866088,934,934.0104577402743,508,-2.125270438291963,1.584
632,62.189564823757536,934,933.9589573456708,507,-2.1133225314064643,1.585
628,62.43551040982442,934,933.9075885185189,506,-2.105543356016929,1.586
593,63.11988024459435,934,933.8563515742114,505,-2.098547775326641,1.587
551,63.68642265483978,933,933.8052468276587,505,-2.0891330565294535,1.588
510,64.02394123563423,933,933.7542745932867,504,-2.074887280824572,1.589
517,64.10679753697937,933,933.7034351850344,504,-2.054668463102138,1.59
530,63.940429847650705,933,933.6527289163522,505,-2.0288834343647273,1.591
507,63.97665839347302,934,933.6021561001995,505,-1.9995249896378404,1.592
499,64.13056845781203,934,933.5517170490428,506,-1.9699604680657223,1.593
515,63.60152996465579,934,933.501412074853,507,-1.9445000914482242,1.594
534,61.9752420017865,933,933.4512414891022,508,-1.927804314360602,1.595
536,59.61948764056648,934,933.4012056027634,508,-1.9242123419710837,1.596
543,56.91571629771849,933,933.3513047263077,510,-1.937086178374812,1.597
547,54.129811324411286,933,933.301539169702,510,-1.9682645885338645,1.598
545,51.790985227724484,934,933.2519092424072,510,-2.0177087706958248,1.599
494,51.13645521456456,932,933.2024152533766,509,-2.083396707778376,1.6
464,48.913375370375924,932,933.1530575110528,508,-2.1614880756930663,1.601
488,44.83327368535243,932,933.1038363233658,507,-2.2467411267975876,1.602
473,40.12371413576591,932,933.0547519977308,505,-2.3331242343077254,1.603
447,35.73975352823285,932,933.0058048410464,504,-2.4145347167884412,1.604
454,32.57746248234582,933,932.9569951596919,504,-2.485521397342272,1.605
459,30.324279752473874,933,932.9083232595257,504,-2.5419080243069567,1.606
451,29.565832950156956,933,932.8597894458823,504,-2.5812318174018607,1.607
472,29.021128975227324,933,932.8113940235702,505,-2.6029408618977214,1.608
515,27.581044821545362,933,932.76313729687,505,-2.6083296553696522,1.609
536,25.553858154538535,933,932.715019569532,506,-2.6002281060298804,1.61
550,23.1051310975081,932,932.6670411447755,507,-2.582491532980831,1.611
552,20.736752085449222,933,932.6192023252851,508,-2.5593647760320417,1.612
550,19.08297755345115,933,932.5715034132091,508,-2.534809989062097,1.613
547,18.27128671564749,933,932.5239447101566,509,-2.5118931007702603,1.614
539,18.29593300101776,933,932.4765265171951,510,-2.4923174477266707,1.615
535,18.197100857604923,932,932.4292491348492,510,-2.476175310599623,1.616
528,17.9016661094476,933,932.3821128630973,509,-2.4619600972389395,1.617
524,17.93175621783457,932,932.3351180013706,507,-2.4468451736538195,1.618
520,17.70047489849427,932,932.2882648485509,506,-2.4271937388210167,1.619
518,17.658768419237596,933,932.2415537029688,505,-2.399225285440573,1.62
515,17.269657206990313,932,932.1949848624015,504,-2.3597369322674706,1.621
512,17.198311763030468,932,932.1485586240706,504,-2.306768074927234,1.622
510,17.163719482122048,932,932.1022752846404,504,-2.2401053329779432,1.623
508,16.804026121364256,932,932.0561351402166,505,-2.16154892203669,1.624
510,16.339474190786156,932,932.0101384863431,505,-2.0748965506486226,1.625
509,16.00539533263236,932,931.9642856180003,507,-1.9856408906520286,1.626
511,15.262453693157235,932,931.9185768296031,507,-1.900415724101668,1.627
510,15.43291860701914,932,931.8730124149993,508,-1.826259072931794,1.628
