EMG_raw,EMG_processed,EDA_raw,EDA_processed,ECG_raw,ECG_processed,time_sec
515,2.2782771814116556,1016,1012.4676974558594,505,-1.5394110619461059,0.0
510,2.402822967036185,1016,1012.4625735838496,505,-1.4889721192258667,0.001
511,2.497997055386014,1017,1012.457460980737,505,-1.4406433678705703,0.002
514,2.5786487833909835,1016,1012.4523596975197,505,-1.3972716421430267,0.003
511,2.6359879348578272,1017,1012.4472697851639,507,-1.360939612244652,0.004
505,2.6941863067857708,1017,1012.4421912946033,507,-1.332674358367724,0.005
498,2.7133785908508905,1017,1012.4371242767376,507,-1.3122712703417694,0.006
499,2.7360615360779343,1016,1012.4320687824321,506,-1.2982587480601322,0.007
504,2.7554872033583133,1017,1012.4270248625172,505,-1.288012496120835,0.008
519,2.777803384165266,1017,1012.4219925677872,505,-1.2780075564068603,0.009
527,2.8161553721703125,1017,1012.4169719490002,505,-1.2641777274820833,0.01
519,2.85743028439576,1016,1012.4119630568781,505,-1.2423405203275777,0.011
518,2.8747645639061856,1016,1012.4069659421062,505,-1.2086421440079285,0.012
516,2.8948805700052986,1017,1012.4019806553321,505,-1.1599788846749204,0.013
515,2.911133134135599,1017,1012.3970072471649,505,-1.094355871029321,0.014
517,2.9303133243838415,1016,1012.3920457681749,505,-1.011150113189581,0.015
513,2.9350887879689846,1016,1012.3870962688926,504,-0.9112515803717807,0.016
514,2.953632881609179,1017,1012.3821587998092,505,-0.7970644052266475,0.017
511,2.9881767351160673,1016,1012.3772334113756,505,-0.6723610146524374,0.018
510,2.9900414052789515,1017,1012.3723201540016,505,-0.5419957334369081,0.019
509,3.004532150826888,1017,1012.3674190780549,507,-0.4115003944140709,0.02
512,3.0666116847627958,1016,1012.3625302338615,507,-0.2866003514184901,0.021
511,3.131459620035111,1016,1012.3576536717047,508,-0.17270184987184706,0.022
512,3.1334533885402553,1016,1012.3527894418249,508,-0.07440773837831573,0.023
508,3.137055405666521,1017,1012.347937594419,508,0.004884086221989924,0.024
505,3.195619562488428,1017,1012.3430981796397,508,0.06325603005392846,0.025
506,3.2070037882308045,1017,1012.3382712475938,508,0.1003932986389097,0.026
507,3.1581816813675525,1016,1012.333456848343,507,0.11754649318386846,0.027
508,3.095150405610183,1016,1012.3286550319027,506,0.11734686542042606,0.028
508,3.1154454227154704,1017,1012.3238658482411,507,0.1035037484903226,0.029
510,3.1635162538465664,1017,1012.3190893472789,507,0.080425373024541,0.03
512,3.153916057069026,1017,1012.3143255788888,506,0.05280950327240785,0.031
512,2.9925818903324046,1017,1012.3095745928941,505,0.025250472547655275,0.032
512,2.872922799157939,1016,1012.3048364390694,505,0.001906153627314541,0.033
513,2.86161397059942,1016,1012.3001111671393,505,-0.013738499154977034,0.034
513,2.8050893141774673,1016,1012.2953988267778,506,-0.0189878025662559,0.035
512,2.6464520439328285,1017,1012.2906994676083,507,-0.011927513526233344,0.036
512,2.7503421324224506,1016,1012.2860131392027,508,0.008689274421852657,0.037
512,2.821580686124123,1017,1012.2813398910813,508,0.04362608261551851,0.038
512,3.0009180796071897,1016,1012.2766797727123,508,0.09337057037470954,0.039
511,3.1222696797045364,1016,1012.2720328335109,508,0.15832015916027475,0.04
512,3.03326229682366,1016,1012.2673991228386,508,0.23890996682918222,0.041
513,3.0088612931575334,1016,1012.2627786900017,508,0.3356619097366371,0.042
511,3.0036937271242476,1016,1012.2581715842513,507,0.449149854417851,0.043
512,3.070458057324822,1016,1012.2535778547827,507,0.5798907203882498,0.044
508,3.087188972144512,1016,1012.2489975507357,507,0.728183481189809,0.045
508,3.0630436622563466,1016,1012.2444307211932,507,0.8939250648956101,0.046
511,3.0609946344556382,1016,1012.2398774151808,508,1.0764331623388987,0.047
511,3.121113123733662,1016,1012.2353376816656,508,1.274301880510885,0.048
514,3.2130242529545634,1016,1012.2308115695556,508,1.4853096109686115,0.049
512,3.184172202343813,1016,1012.2262991276995,508,1.706392019265801,0.05
509,3.081046707975676,1016,1012.2218004048865,508,1.9336877311026217,0.051
511,3.026562567379624,1016,1012.2173154498452,508,2.162659146506957,0.052
512,2.9662447376317864,1016,1012.212844311243,509,2.388284119352325,0.053
516,2.9255564059808905,1016,1012.2083870376865,510,2.605305194344955,0.054
519,2.886622838170191,1016,1012.2039436777205,511,2.808512900565288,0.055
518,2.880210094567177,1016,1012.199514279827,511,2.9930314694983142,0.056
519,2.8755223542626274,1016,1012.1950988924247,511,3.1545730138235393,0.057
519,2.8856713261201983,1016,1012.1906975638686,511,3.2896314548777643,0.058
514,2.8996330025182773,1016,1012.1863103424495,511,3.3955988505406367,0.059
504,2.908735651780613,1016,1012.1819372763922,510,3.470800760502081,0.06
499,2.9414122017134896,1016,1012.1775784138564,510,3.5144605053934774,0.061
501,2.990699877073956,1016,1012.1732338029352,510,3.526612119183628,0.062
498,3.0616606911718165,1016,1012.1689034916554,510,3.5079867119671846,0.063
501,3.1323355729385125,1016,1012.1645875279761,510,3.4598963918548504,0.064
511,3.1212149115614523,1016,1012.160285959788,510,3.3841351256862744,0.065
511,3.1486481472671217,1016,1012.1559988349132,510,3.2829090819669697,0.066
509,3.3044326038518697,1016,1012.1517262011045,510,3.1588017636979115,0.067
507,3.4015923661102847,1016,1012.147468106045,509,3.01477243523554,0.068
508,3.474888135892807,1016,1012.1432245973484,510,2.8541801343090745,0.069
511,3.6128422622001857,1016,1012.1389957225566,510,2.680819591090505,0.07
511,3.584583156328588,1016,1012.1347815291398,511,2.4989496155013073,0.071
514,3.534496817997442,1016,1012.1305820644963,510,2.31329046284595,0.072
516,3.542032341428222,1016,1012.126397375952,510,2.1289670166848453,0.073
512,3.5565316224010375,1016,1012.1222275107594,510,1.9513808089432827,0.074
512,3.524097368466744,1016,1012.1180725160972,510,1.786004724216028,0.075
513,3.564865490545981,1016,1012.1139324390698,509,1.6381072306931674,0.076
512,3.542299061375292,1016,1012.1098073267063,508,1.5124263985004256,0.077
512,3.5993865929443576,1015,1012.10569722596,508,1.4128264499041534,0.078
512,3.6381386540569647,1016,1012.1016021837069,507,1.3419787671270489,0.079
512,3.5944338150222417,1016,1012.0975222467465,507,1.3011123307028531,0.08
512,3.4714341057763742,1015,1012.093457461801,507,1.2898740209994362,0.081
513,3.329033459418586,1015,1012.0894078755147,507,1.306327562047582,0.082
513,3.2223705536184535,1015,1012.0853735344532,508,1.3471028328524723,0.083
514,3.143156944980556,1016,1012.0813544851031,508,1.40768730870615,0.084
515,3.1519247460707693,1016,1012.077350773871,509,1.4828315663132507,0.085
515,3.0325046556335242,1015,1012.0733624470823,510,1.5670241605833224,0.086
516,2.8280893176115067,1016,1012.0693895509813,510,1.6549803256455373,0.087
516,2.6985783421169387,1015,1012.0654321317307,510,1.742085700156538,0.088
512,2.5773648946755165,1016,1012.061490235411,511,1.8247413121401574,0.089
510,2.54372765410172,1015,1012.0575639080208,511,1.9005684496241606,0.09
503,2.669631979974528,1015,1012.053653195475,510,1.9684498894341886,0.091
505,2.749763053822772,1015,1012.0497581436049,510,2.0284055044318094,0.092
508,2.7894013636124004,1015,1012.0458787981576,509,2.0813234423749067,0.093
504,2.7698388829587244,1016,1012.0420152047951,508,2.128589409035441,0.094
510,2.7233030197386983,1015,1012.0381674090937,508,2.1716719624488654,0.095
511,2.7644628957923665,1015,1012.0343354565435,508,2.211727980587603,0.096
512,2.8518951570769313,1015,1012.0305193925484,508,2.2492884302429625,0.097
511,2.9339433059832185,1015,1012.0267192624248,508,2.284071462524986,0.098
510,2.9869080982405944,1015,1012.0229351114009,508,2.31495071019143,0.099
515,3.0495852480208177,1015,1012.0191669846164,509,2.3400845673126174,0.1
512,3.1082722298654097,1015,1012.0154149271217,510,2.35718942982591,0.101
515,3.1518790565901034,1015,1012.0116789838777,510,2.363918612651041,0.102
514,3.215508225629183,1015,1012.0079591997547,511,2.3582920660737607,0.103
515,3.2807766730025953,1015,1012.0042556195323,511,2.3391131580692988,0.104
513,3.287845987787755,1015,1012.0005682878983,512,2.3063090771382306,0.105
512,3.2755833750593153,1014,1011.996897249449,511,2.2611405219328216,0.106
514,3.310838032541312,1015,1011.9932425486874,511,2.206243166456923,0.107
516,3.341050740232024,1014,1011.989604230023,510,2.14548601330115,0.108
515,3.3099933722650254,1015,1011.9859823377725,510,2.0836568768528987,0.109
512,3.2832541679512763,1015,1011.9823769161582,509,2.026008781465727,0.11
510,3.3471382926927773,1014,1011.9787880093078,508,1.977719658138338,0.111
508,3.6190250024092263,1014,1011.9752156612532,508,1.9433293443193147,0.112
505,3.749732781876079,1014,1011.9716599159302,508,1.9262212418408455,0.113
503,3.7008176427763804,1014,1011.9681208171779,508,1.9282105166210215,0.114
505,3.6987235994873573,1014,1011.964598408738,508,1.949287564132633,0.115
506,3.708293886868785,1014,1011.9610927342538,508,1.9875473779684691,0.116
508,3.5841862991169333,1014,1011.9576038372699,509,2.039315250574636,0.117
508,3.473088748165824,1014,1011.9541317612317,509,2.0994587626467944,0.118
512,3.4052106449014525,1014,1011.9506765494854,509,2.161856789122762,0.119
513,3.2543786924913274,1014,1011.9472382452769,510,2.219979909707999,0.12
516,3.2349723662204504,1014,1011.9438168917519,511,2.2675243689874964,0.121
518,3.2649640558602697,1014,1011.9404125319544,511,2.299034311574404,0.122
519,3.270139183407664,1014,1011.9370252088262,512,2.310445670181555,0.123
515,3.2635624539390964,1014,1011.9336549652063,512,2.299491577892581,0.124
515,3.2510808711225896,1014,1011.9303018438301,511,2.265924319996843,0.125
515,3.2000179899120345,1014,1011.9269658873296,510,2.211531414528775,0.126
515,3.2507680636894283,1014,1011.9236471382329,510,2.1399499751723265,0.127
515,3.337933356098349,1014,1011.9203456389624,509,2.0563089330530646,0.128
512,3.4093412964669887,1014,1011.9170614318351,509,1.9667481463536667,0.129
511,3.413372605711532,1014,1011.9137945590616,508,1.877874612723994,0.13
508,3.447879567569344,1014,1011.9105450627454,508,1.796219086418358,0.131
508,3.5078455986579837,1014,1011.9073129848827,508,1.727752299357604,0.132
511,3.487147176208241,1014,1011.9040983673614,508,1.6775095625099326,0.133
512,3.4230620448322395,1013,1011.9009012519615,508,1.6493571259209119,0.134
504,3.388238543062103,1013,1011.8977216803543,508,1.6459153487287794,0.135
494,3.509729714057041,1013,1011.8945596941018,509,1.6686345133992995,0.136
500,3.6605084190594517,1014,1011.8914153346565,510,1.7180005731307206,0.137
509,3.6488880909557553,1013,1011.8882886433604,510,1.7938320418126008,0.138
511,3.5987142163364907,1013,1011.8851796614446,511,1.8956182979455631,0.139
513,3.5798658635000407,1013,1011.8820884300281,510,2.0228462796294946,0.14
514,3.607329894146965,1013,1011.879014990118,511,2.1752673477712428,0.141
512,3.6587787941037844,1013,1011.8759593826081,511,2.3530669847212566,0.142
512,3.7851514766389855,1013,1011.8729216482794,511,2.556914057543697,0.143
511,3.9843662140957403,1013,1011.869901827799,511,2.787881554344026,0.144
511,4.114992718430449,1012,1011.8668999617199,511,3.0472460517762374,0.145
509,4.111404107555617,1013,1011.8639160904796,511,3.336187799463108,0.146
511,4.261699635016645,1013,1011.8609502543997,511,3.655425846821397,0.147
512,4.49731844288136,1013,1011.8580024936851,511,4.004831782187485,0.148
511,4.743710180435496,1013,1011.8550728484253,511,4.383070570576501,0.149
512,5.041583407126942,1013,1011.8521613585918,511,4.787317138864795,0.15
515,5.20385730678245,1012,1011.8492680640385,511,5.213092322321303,0.151
519,5.165927200033573,1013,1011.8463930045001,512,5.654251208678704,0.152
518,5.085203921785971,1013,1011.8435362195925,513,6.103140918426292,0.153
515,5.012108915333496,1012,1011.8406977488113,514,6.550924816245146,0.154
515,5.000902837312989,1013,1011.8378776315318,515,6.9880491653881975,0.155
515,5.088544054342734,1012,1011.8350759070082,515,7.404810278829641,0.156
513,5.127929985558279,1013,1011.8322926143734,517,7.791968230603549,0.157
513,5.173122379856331,1012,1011.8295277926387,517,8.141348089496084,0.158
509,5.317307428968751,1012,1011.8267814806933,518,8.446371208493185,0.159
505,5.398543768790257,1012,1011.824053717303,517,8.702467225804929,0.16
502,5.386353678089813,1012,1011.8213445411099,518,8.907331664709696,0.161
509,5.167214746307347,1012,1011.8186539906325,517,9.061012353999619,0.162
515,5.026985869031992,1012,1011.8159821042647,517,9.165827042107585,0.163
518,5.086470979446098,1012,1011.8133289202752,517,9.226131553978583,0.164
519,5.1178661870894615,1012,1011.8106944768075,516,9.24797075010864,0.165
518,5.07964221708818,1012,1011.8080788118783,516,9.238652347848838,0.166
521,5.0360122204154685,1012,1011.8054819633777,516,9.20628578118144,0.167
523,5.019341053437409,1012,1011.8029039690683,516,9.159324517088198,0.168
518,5.021855843187404,1012,1011.8003448665846,517,9.106141255713117,0.169
508,5.0842673655850605,1012,1011.7978046934323,516,9.05465325370242,0.17
499,5.141546033503089,1012,1011.7952834869881,517,9.012002562302913,0.171
491,5.112488611819536,1012,1011.7927812844988,518,8.984285671584953,0.172
491,5.145976294231479,1011,1011.790298123081,518,8.976320235832286,0.173
491,5.189278471768505,1012,1011.7878340397211,518,8.991434481657732,0.174
499,5.30570292232781,1011,1011.7853890712751,517,9.031269047388765,0.175
508,5.37119258028993,1012,1011.7829632544673,518,9.095591255319242,0.176
511,5.348877154759641,1011,1011.7805566258909,516,9.18213526005119,0.177
510,5.293456951594074,1011,1011.7781692220061,516,9.286493989731904,0.178
512,5.303163723413307,1011,1011.7758010791405,516,9.402096833081389,0.179
515,5.412350844976847,1011,1011.7734522334878,516,9.52030812527422,0.18
516,5.453189934149202,1011,1011.7711227211086,516,9.630674460957055,0.181
516,5.4186283677079645,1011,1011.7688125779283,517,9.721334750623852,0.182
519,5.471205251312914,1011,1011.766521839737,517,9.779588615652768,0.183
516,5.462597876032231,1011,1011.7642505421892,517,9.792599452564046,0.184
518,5.487725805739006,1011,1011.7619987208033,518,9.748191007099624,0.185
517,5.446475915860649,1011,1011.7597664109613,518,9.635682347491727,0.186
516,5.409856327411273,1011,1011.7575536479081,518,9.446696640009694,0.187
516,5.450737895879731,1011,1011.7553604667502,519,9.17587489531768,0.188
514,5.410979730348333,1011,1011.7531869024552,519,8.821427796367217,0.189
511,5.28865297315225,1011,1011.7510329898529,518,8.385467697173345,0.19
512,5.166310984611166,1011,1011.7488987636335,517,7.874079418197855,0.191
511,5.043623861375205,1011,1011.746784258347,517,7.297111698635879,0.192
512,4.9205635186347605,1011,1011.7446895084028,515,6.667697992723561,0.193
508,4.758758151602937,1011,1011.7426145480691,514,6.0015416762159965,0.194
509,4.674490268709417,1011,1011.7405594114731,512,5.3160235310312975,0.195
512,4.7199501556782755,1010,1011.7385241325998,511,4.629206114443972,0.196
515,4.631117296355174,1011,1011.7365087452914,511,3.9588176587497004,0.197
514,4.52362047052779,1010,1011.7345132832471,510,3.321295855911539,0.198
519,4.513450525896903,1011,1011.7325377800222,510,2.7309604335830744,0.199
515,4.469246872584257,1010,1011.7305822690274,509,2.199366552977429,0.2
510,4.458636382174379,1010,1011.7286467835289,508,1.7348726170787372,0.201
507,4.514020186376123,1011,1011.7267313566477,508,1.3424378309339562,0.202
505,4.578184280914853,1010,1011.7248360213595,509,1.0236463660746882,0.203
503,4.908693693148216,1010,1011.7229608104941,509,0.7769356447026686,0.204
506,5.479600181597637,1010,1011.7211057567353,510,0.597987699312698,0.205
513,5.993622109874207,1010,1011.7192708926196,510,0.4802287850110259,0.206
516,6.365492785523254,1009,1011.7174562505367,510,0.415377314805758,0.207
511,6.48691843031021,1010,1011.7156618627279,510,0.3939851451956761,0.208
508,6.380618772910868,1010,1011.7138877612871,509,0.40593083517007117,0.209
507,6.347051651731095,1010,1011.7121339781589,508,0.44084235547071743,0.21
504,6.319410047567208,1010,1011.7104005451389,508,0.4884463090128597,0.211
507,6.2826776397056205,1009,1011.7086874938724,508,0.53885623009606,0.212
509,6.339803150914227,1010,1011.7069948558543,508,0.5828204952106906,0.213
512,6.3192465777515485,1010,1011.7053226624286,508,0.6119503481967333,0.214
513,6.36060317447403,1009,1011.7036709447881,508,0.6189427833028563,0.215
512,6.489046180619999,1009,1011.7020397339744,508,0.5978043394519863,0.216
515,6.580364522290943,1010,1011.7004290608771,509,0.5440720175585232,0.217
515,6.684837440440455,1009,1011.6988389562335,509,0.45501768777508006,0.218
514,6.731322917031397,1009,1011.6972694506277,509,0.3298141106656118,0.219
515,6.673683694260471,1009,1011.6957205744903,509,0.16963614800855426,0.22
519,6.627731478692375,1009,1011.6941923580986,509,-0.022328801699393663,0.221
524,6.617687508149799,1009,1011.6926848315749,509,-0.2409819613323015,0.222
531,6.602084815293738,1009,1011.6911980248871,509,-0.47953807022245,0.223
527,6.56165802309462,1009,1011.689731967847,508,-0.7298747450506461,0.224
523,6.45953466820774,1009,1011.6882866901102,507,-0.9829933813940243,0.225
515,6.460699236975479,1009,1011.686862221176,507,-1.2295641269182929,0.226
508,6.4214033021151815,1009,1011.6854585903872,506,-1.4605147058648156,0.227
493,6.47782895121298,1009,1011.6840758269283,506,-1.6676147022984396,0.228
482,6.532395016518078,1009,1011.6827139598264,505,-1.8440045611148121,0.229
480,6.546115598215517,1009,1011.6813730179498,505,-1.9846217401629196,0.23
488,6.5899282561310075,1009,1011.6800530300085,505,-2.086484526370985,0.231
499,6.687982425267532,1009,1011.6787540245533,505,-2.148806539892068,0.232
509,6.700787907369955,1008,1011.677476029976,505,-2.1729309613319265,0.233
514,6.6922664568405965,1009,1011.6762190745086,506,-2.1620913261333303,0.234
516,6.7410878460842945,1008,1011.6749831862227,506,-2.121023315479923,0.235
515,6.841072790109967,1008,1011.6737683930293,507,-2.0554673270066264,0.236
518,6.9913821730270485,1008,1011.672574722678,507,-1.9716127205662066,0.237
515,7.1715779393668875,1008,1011.6714022027573,507,-1.8755398872226137,0.238
515,7.3431900531925205,1008,1011.6702508606937,508,-1.7727152108324344,0.239
518,7.476035921197824,1008,1011.6691207237506,508,-1.6675873586175936,0.24
516,7.45228317583075,1008,1011.6680118190285,508,-1.563322287309686,0.241
517,7.467896139756237,1008,1011.6669241734645,508,-1.4616995551638052,0.242
514,7.434589093592924,1008,1011.6658578138323,507,-1.36317466338503,0.243
512,7.386072835394869,1008,1011.6648127667414,507,-1.2670930174273778,0.244
510,7.370581457930738,1008,1011.6637890586368,507,-1.1720236958865768,0.245
512,7.278569928780397,1008,1011.6627867157987,506,-1.076168500703922,0.246
513,7.224528054483113,1008,1011.6618057643419,507,-0.9777953673074855,0.247
511,7.00543064514441,1008,1011.6608462302153,506,-0.8756452095160224,0.248
510,6.690720669520546,1008,1011.6599081392015,507,-0.7692668308636575,0.249
508,6.426769040524699,1008,1011.6589915169167,507,-0.6592443969723856,0.25
511,6.210582187600455,1008,1011.6580963888088,507,-0.5472945202064549,0.251
519,6.114308620069266,1007,1011.6572227801577,507,-0.436223525971905,0.252
521,6.073131804016844,1007,1011.6563707160759,508,-0.32974868411213865,0.253
521,5.781331914961949,1008,1011.6555402215077,508,-0.23219958701886528,0.254
519,5.243966195899392,1008,1011.6547313212287,508,-0.1481270236272562,0.255
518,4.692992237819281,1008,1011.6539440398452,509,-0.08185566135041564,0.256
516,4.316739074958969,1007,1011.6531784017949,510,-0.037022535678522664,0.257
512,4.161216827735003,1008,1011.6524344313458,509,-0.016144942935922665,0.258
505,4.223039346109641,1007,1011.6517121525959,509,-0.020257865137316394,0.259
502,4.245911359387711,1007,1011.6510115894727,509,-0.04865217435145983,0.26
496,4.209916084710046,1007,1011.6503327657321,509,-0.09873236827432431,0.261
498,4.135397232083745,1008,1011.6496757049582,509,-0.16599955867958044,0.262
500,4.156529223520825,1007,1011.6490404305638,508,-0.24415365213397705,0.263
504,4.227259451305322,1007,1011.6484269657891,508,-0.3252982153317777,0.264
510,4.2085707002604416,1007,1011.6478353337017,507,-0.4002226997519589,0.265
513,4.144182904146831,1007,1011.6472655571957,507,-0.45873103413560123,0.266
513,4.0677793196227645,1007,1011.6467176589914,506,-0.4899849655698006,0.267
513,3.9715718743416324,1007,1011.6461916616346,507,-0.48283609038312364,0.268
509,3.930770220925469,1007,1011.6456875874966,508,-0.4261322197806407,0.269
511,3.9365622203666266,1007,1011.6452054587745,508,-0.3089998202342065,0.27
516,3.942315938160549,1007,1011.6447452974904,510,-0.12112090651964932,0.271
514,3.943924157374932,1007,1011.6443071254909,511,0.14696497400903283,0.272
515,3.938294178804714,1007,1011.6438909644463,511,0.5034992873821573,0.273
515,3.949877390142302,1007,1011.6434968358504,511,0.9550563406421784,0.274
512,3.963949021026434,1007,1011.64312476102,511,1.5059989292078435,0.275
511,3.9537965281084646,1007,1011.6427747610948,510,2.157853087235186,0.276
510,3.9635183395510314,1007,1011.6424468570373,511,2.908642549311825,0.277
509,3.8357379460909513,1006,1011.6421410696322,511,3.752243080840208,0.278
509,3.749284426561021,1006,1011.6418574194864,512,4.677826633637083,0.279
514,3.7435792973845654,1007,1011.6415959270286,513,5.669464570657942,0.28
516,3.8395305685594963,1007,1011.641356612508,514,6.705949782938944,0.281
515,4.015602168887207,1006,1011.6411394959952,515,7.760882229285861,0.282
517,4.173258657415657,1006,1011.6409445973806,516,8.803043836891478,0.283
516,4.330655221956005,1006,1011.6407719363743,518,9.797068587681668,0.284
515,4.231956690572641,1007,1011.6406215325061,519,10.704393206469158,0.285
511,4.333687692344315,1007,1011.6404934051249,520,11.484454663560225,0.286
504,4.494671095865141,1007,1011.6403875733992,520,12.096084716449614,0.287
504,4.4958947491384835,1006,1011.6403040563165,521,12.499040218856555,0.288
509,4.377371303988381,1006,1011.6402428726834,521,12.655600268858837,0.289
508,4.261941440626771,1006,1011.640204041125,521,12.532155664786814,0.29
513,4.37024133882598,1006,1011.640187580084,521,12.1007115016769,0.291
512,4.4292813818344365,1006,1011.6401935078208,521,11.34022032331349,0.292
511,4.484288977084438,1006,1011.6402218424138,521,10.237662183713296,0.293
512,4.508958509678946,1007,1011.6402726017587,520,8.788791225952153,0.294
510,4.756834459427621,1006,1011.6403458035676,519,6.998478757357775,0.295
511,4.998391598611188,1006,1011.640441465369,516,4.880602877550127,0.296
510,5.012044541463491,1006,1011.640559604508,514,2.457465162059614,0.297
510,4.997210315851656,1006,1011.6407002381453,510,-0.24124643704108825,0.298
509,4.962562648603631,1006,1011.6408633832567,504,-3.1798869470123283,0.299
508,4.998595338203847,1006,1011.6410490566328,500,-6.318574524808224,0.3
510,5.06110047767381,1006,1011.6412572748796,497,-9.615069987997504,0.301
512,5.0677790099085485,1006,1011.6414880544181,494,-13.026671557858725,0.302
516,5.056111372901697,1006,1011.6417414114836,491,-16.51198749064478,0.303
520,5.07031881399407,1006,1011.6420173621265,487,-20.032470773173902,0.304
523,5.053442816744616,1006,1011.6423159222109,483,-23.553627685292597,0.305
526,5.017522743876419,1006,1011.6426371074144,480,-27.045839942014688,0.306
523,4.939676940811987,1006,1011.6429809332285,477,-30.484767355575237,0.307
519,4.8980256722330715,1006,1011.6433474149576,476,-33.85132550768902,0.308
509,4.860822874979176,1006,1011.6437365677184,473,-37.131259667351706,0.309
496,4.793815445353202,1006,1011.6441484064399,469,-40.31435757804645,0.31
487,4.777761105071279,1006,1011.6445829458626,463,-43.39335485591397,0.311
497,4.8505189624516465,1006,1011.6450402005385,458,-46.362587834855326,0.312
505,4.8147645922513815,1006,1011.6455201848298,455,-49.216448153238595,0.313
512,4.80654381028309,1006,1011.6460229129098,455,-51.94770375078583,0.314
516,4.868441325462121,1006,1011.6465483987618,456,-54.545779510572274,0.315
515,4.920814836625715,1006,1011.6470966561792,455,-56.99513209278156,0.316
515,4.899628172804028,1006,1011.6476676987654,455,-59.2738908339113,0.317
507,4.9453588726513305,1006,1011.6482615399332,453,-61.352951713284504,0.318
496,4.972138856350719,1006,1011.6488781929042,451,-63.19569456873924,0.319
498,5.035026512274225,1006,1011.6495176707094,449,-64.75844640130596,0.32
505,5.1068441643748415,1006,1011.650179986189,447,-65.99174455796934,0.321
508,5.231908211950785,1006,1011.6508651519916,444,-66.84237396940536,0.322
513,5.267889960694937,1005,1011.6515731805744,441,-67.25607285349196,0.323
516,5.272391292279504,1005,1011.6523040842026,440,-67.18073060424659,0.324
515,5.271232006693094,1005,1011.6530578749498,440,-66.56984856554048,0.325
510,5.236985680280682,1005,1011.6538345646973,441,-65.38600553082712,0.326
512,5.237464674445256,1005,1011.6546341651338,442,-63.604066422284845,0.327
514,5.250890032324994,1005,1011.6554566877558,443,-61.21389047319468,0.328
513,5.169657220442369,1005,1011.6563021438669,446,-58.2223285610849,0.329
512,5.023625314119834,1005,1011.6571705445776,449,-54.6543447827636,0.33
511,4.7947314222857,1005,1011.6580619008055,454,-50.55315414197812,0.331
513,4.529849249380948,1006,1011.6589762232752,459,-45.97933513741605,0.332
515,4.330195237406394,1006,1011.6599135225183,466,-41.008949310478485,0.333
513,4.185799399311059,1005,1011.6608738088721,472,-35.73077330645572,0.334
514,4.187082798722895,1005,1011.6618570924797,480,-30.24281559850075,0.335
516,3.9317658785288194,1005,1011.6628633832902,487,-24.64834287442925,0.336
518,3.5327765213923175,1005,1011.6638926910582,493,-19.051674555743794,0.337
519,3.3398258208815066,1005,1011.6649450253435,500,-13.55401437294202,0.338
518,3.360241136802499,1005,1011.6660203955107,505,-8.249574617687564,0.339
518,3.352088863604798,1005,1011.6671188107293,510,-3.2222141166369687,0.34
512,3.3329019320326023,1005,1011.6682402799738,513,1.4572400134432955,0.341
509,3.324871709006775,1005,1011.6693848120226,517,5.732877849427626,0.342
510,3.367866149883142,1005,1011.6705524154581,520,9.564754164414166,0.343
508,3.435237424200349,1005,1011.6717430986673,523,12.92911190278086,0.344
507,3.3075429907297123,1005,1011.6729568698415,525,15.817845314786073,0.345
505,3.198204044767013,1005,1011.6741937369756,527,18.237305161891275,0.346
509,3.1037294519435217,1005,1011.6754537078685,528,20.206576385900377,0.347
510,3.0649375487640214,1005,1011.6767367901233,529,21.755376161967032,0.348
510,3.0397496011693397,1005,1011.6780429911454,530,22.921727114486586,0.349
513,2.930410821351321,1005,1011.679372318143,531,23.74955650634542,0.35
511,2.869025807384411,1005,1011.6807247781265,531,24.28635818021963,0.351
510,2.878946268836878,1005,1011.682100377909,531,24.581031990158802,0.352
513,2.948736925782008,1005,1011.6834991241052,532,24.681987918051096,0.353
510,2.9672007848964124,1005,1011.684921023132,533,24.63557093670402,0.354
510,3.041694722655471,1005,1011.6863660812077,533,24.48482991710127,0.355
510,3.0642485609699293,1005,1011.6878343043521,534,24.268622911910576,0.356
508,3.062874177371819,1005,1011.6893256983866,534,24.021026336753696,0.357
511,3.0490345990467063,1005,1011.6908402689345,534,23.77100002835535,0.358
510,3.013361995927819,1005,1011.6923780214205,534,23.542254725180726,0.359
510,3.0426918396825475,1005,1011.6939389610706,533,23.353272223238083,0.36
508,3.0113740980575825,1005,1011.6955230929115,533,23.217439014355993,0.361
508,2.9435347132598757,1005,1011.6971304217712,532,23.143268321312252,0.362
505,2.863186370468024,1004,1011.6987609522779,532,23.134699489530792,0.363
513,2.7497602248844832,1005,1011.7004146888602,531,23.191474606591797,0.364
516,2.6308679230644256,1005,1011.7020916357477,532,23.3095979729794,0.365
516,2.534795441627115,1005,1011.7037917969704,532,23.481883804470563,0.366
518,2.5374683289716056,1005,1011.7055151763592,532,23.69859191060117,0.367
518,2.500787730224719,1004,1011.7072617775456,532,23.948142045794413,0.368
519,2.4616633678792392,1005,1011.7090316039611,533,24.217887283038777,0.369
518,2.407931323551943,1005,1011.7108246588376,534,24.494916103665325,0.37
512,2.341423346423131,1005,1011.7126409452075,535,24.766842589027284,0.371
511,2.2325423718918143,1005,1011.7144804659023,535,25.022536190075435,0.372
512,2.1727990389480234,1004,1011.7163432235545,536,25.25274013062646,0.373
511,2.1573595235272274,1005,1011.718229220596,536,25.4505324615665,0.374
512,2.1199009073008064,1005,1011.7201384592579,536,25.611595686426412,0.375
510,2.0958222172911407,1005,1011.7220709415712,536,25.73427787496467,0.376
507,2.1028547268949542,1004,1011.7240266693659,535,25.81944805346314,0.377
507,2.105505524522405,1004,1011.7260056442708,534,25.87016880439041,0.378
506,2.123114506794696,1005,1011.7280078677134,535,25.891226178820837,0.379
509,2.0958634476124067,1005,1011.7300333409196,535,25.888568022719248,0.38
511,2.081729558689868,1005,1011.732082064914,534,25.868705348360688,0.381
510,2.050664958510112,1004,1011.7341540405203,534,25.838129087395846,0.382
510,2.05891179366421,1005,1011.7362492683603,534,25.802788994949715,0.383
508,2.0835858237588463,1005,1011.7383677488549,534,25.76767336863912,0.384
511,2.1320587348585787,1004,1011.7405094822232,534,25.73651703209102,0.385
510,2.153062337792781,1005,1011.7426744684828,534,25.71165106446489,0.386
514,2.138743261461648,1005,1011.7448627074498,535,25.69399255510034,0.387
512,2.1174707075505976,1005,1011.7470741987383,535,25.68315785807213,0.388
512,2.0081706859331896,1005,1011.749308941761,536,25.67767010842501,0.389
512,1.9989023756228381,1005,1011.7515669357283,536,25.67522325453195,0.39
512,1.9027915816990837,1004,1011.7538481796485,536,25.672962515044762,0.391
512,1.864511310923835,1005,1011.7561526723276,536,25.667745732415863,0.392
512,1.763328915218197,1004,1011.7584804123695,535,25.656360592031344,0.393
510,1.7048043178796384,1005,1011.760831398176,535,25.63568660068711,0.394
510,1.6529094048675457,1004,1011.7632056279468,534,25.60280470330217,0.395
510,1.675070022970433,1005,1011.7656030996787,534,25.555068138981515,0.396
512,1.910526143921516,1005,1011.7680238111658,535,25.490153277353933,0.397
512,2.1847390967589164,1005,1011.7704677599992,534,25.406108310852172,0.398
512,2.484784801924445,1005,1011.7729349435673,534,25.301412575509385,0.399
511,2.845062739108793,1004,1011.7754253590562,534,25.17505264353901,0.4
513,3.0867810105875106,1004,1011.777939003449,534,25.02661470005184,0.401
513,3.1134312485383275,1005,1011.7804758735261,534,24.85638599589514,0.402
514,3.2925422319879005,1004,1011.7830359658652,534,24.665451293172527,0.403
511,3.6990151544583836,1004,1011.7856192768405,535,24.455764135030073,0.404
511,4.040745208002822,1004,1011.7882258026231,535,24.230169008243664,0.405
511,4.30625114473054,1005,1011.7908555391815,534,23.992350830436077,0.406
508,4.491725548961088,1004,1011.7935084822817,534,23.746694269033192,0.407
509,4.658608415963448,1004,1011.7961846274872,534,23.498047065910157,0.408
508,4.888532671794364,1004,1011.7988839701593,533,23.25139643456372,0.409
508,5.119210066626837,1005,1011.8016065054567,532,23.011482866370898,0.41
509,5.394076540041451,1005,1011.804352228336,531,22.782389352579827,0.411
508,5.6106543253691346,1005,1011.8071211335518,531,22.56715406438345,0.412
511,5.570498539711244,1004,1011.8099132156558,530,22.36745826722613,0.413
510,5.6664462019473705,1005,1011.8127284689963,530,22.183436921370937,0.414
510,5.860808845944167,1005,1011.8155668877184,530,22.013647445311424,0.415
513,6.048355938547566,1005,1011.8184284657646,530,21.855214369961647,0.416
512,6.217211122998928,1004,1011.8213131968741,531,21.704146450051375,0.417
514,6.456117621909225,1004,1011.8242210745834,531,21.55580101502019,0.418
515,6.679612530014816,1005,1011.8271520922262,531,21.405451158852077,0.419
518,6.767604685188485,1004,1011.8301062429337,531,21.248897622888418,0.42
522,6.792460656286734,1004,1011.8330835196348,532,21.083060191156296,0.421
524,6.848878366561435,1005,1011.8360839150569,532,20.906482746753806,0.422
525,6.922813930454547,1004,1011.8391074217246,532,20.719691388575217,0.423
528,6.9399984824172956,1005,1011.8421540319604,532,20.525356693951768,0.424
522,6.990047518528116,1004,1011.8452237378841,531,20.328229730411387,0.425
512,7.050707158243455,1005,1011.8483165314132,531,20.134845498016297,0.426
496,7.077611995877427,1004,1011.8514324042625,529,19.95301416627296,0.427
485,7.106694062311552,1005,1011.8545713479447,529,19.791146041425208,0.428
487,7.070929648190174,1005,1011.85773335377,528,19.65747688580611,0.429
494,7.124057858611057,1005,1011.8609184128467,528,19.559272878338675,0.43
500,7.121071420348122,1004,1011.8641265160808,527,19.502097663399294,0.431
500,7.155433096182735,1005,1011.8673576541768,527,19.489218029560586,0.432
497,7.113558612956316,1004,1011.8706118176368,527,19.521211117271474,0.433
495,7.108172421835044,1005,1011.8738889967611,527,19.595815834539838,0.434
496,7.087551925115547,1005,1011.877189181648,528,19.70804560435386,0.435
498,7.032974851136191,1005,1011.8805123621944,529,19.850550787844835,0.436
511,7.0344655635455045,1005,1011.8838585280957,530,20.01419036098104,0.437
516,7.005899899507723,1005,1011.8872276688455,531,20.188747760577336,0.438
521,7.059702186098752,1005,1011.8906197737354,532,20.363709392532808,0.439
521,7.127844420670105,1005,1011.8940348318549,532,20.529019066717353,0.44
520,7.137175747002975,1005,1011.8974728320925,532,20.67572849175972,0.441
524,7.09264373216502,1005,1011.9009337631344,532,20.79648155497432,0.442
523,7.066595941250046,1005,1011.9044176134651,532,20.885795082886826,0.443
517,7.044590482587496,1005,1011.9079243713675,531,20.94012693948892,0.444
515,6.948404356186726,1005,1011.9114540249241,531,20.957750062011417,0.445
516,6.808718301400975,1004,1011.9150065620157,529,20.9384756179536,0.446
516,6.586814633546721,1005,1011.9185819703222,528,20.88328719490239,0.447
514,6.327498233212386,1005,1011.9221802373228,528,20.793957555518762,0.448
515,6.023777475746189,1005,1011.925801350295,528,20.672716839615358,0.449
516,5.6763552240432285,1005,1011.9294452963155,529,20.522025144628007,0.45
515,5.503394313013148,1005,1011.9331120622602,529,20.344476194563175,0.451
516,5.507791019978114,1005,1011.936801634805,530,20.142828727647178,0.452
512,5.290091960206599,1005,1011.9405140004247,530,19.920135051799637,0.453
510,4.81395331029924,1005,1011.9442491453943,531,19.67991658742065,0.454
512,4.37284787394654,1005,1011.9480070557885,531,19.426326419641224,0.455
511,4.078665277047739,1005,1011.9517877174812,531,19.16423974565559,0.456
511,3.895973537804124,1005,1011.9555911161465,531,18.899224579066818,0.457
511,3.7241125563133277,1005,1011.9594172372585,529,18.637365996941995,0.458
510,3.513214641812018,1005,1011.9632660660923,528,18.384944716445784,0.459
513,3.2569059778899554,1005,1011.9671375877228,527,18.147999948927556,0.46
510,3.0184912370024866,1005,1011.9710317870258,526,17.931831002031995,0.461
511,2.8326712972728716,1005,1011.9749486486776,526,17.740506507898708,0.462
509,2.8605895207093415,1005,1011.9788881571553,525,17.576452110468637,0.463
508,2.7774605420903895,1005,1011.982850296738,525,17.44017794436327,0.464
511,2.6115661777012202,1005,1011.9868350515067,526,17.330188918470178,0.465
512,2.454246300037445,1006,1011.9908424053441,526,17.243096667293415,0.466
511,2.291887057327581,1006,1011.9948723419342,527,17.173925571451623,0.467
509,2.0612997457652504,1005,1011.9989248447627,527,17.116580764265716,0.468
511,1.846374344878923,1006,1012.0029998971166,527,17.06442742119682,0.469
512,1.7491690212162108,1006,1012.0070974820854,527,17.010919718849294,0.47
513,1.7022799894380882,1006,1012.011217582561,528,16.950214113577342,0.471
512,1.6363471744384688,1006,1012.015360181237,529,16.8777034149275,0.472
512,1.597078746126098,1005,1012.0195252606103,528,16.790414898542213,0.473
510,1.5805698676328512,1006,1012.0237128029801,528,16.687228557438445,0.474
507,1.5470270996175604,1006,1012.0279227904491,527,16.568891361189166,0.475
508,1.4823386156167444,1005,1012.0321552049238,527,16.437828001297373,0.476
509,1.4504257967597445,1006,1012.0364100281138,526,16.297773578468416,0.477
510,1.408968799452892,1005,1012.0406872415308,525,16.153274988476888,0.478
511,1.3993799657278438,1006,1012.0449868264902,524,16.00912305650752,0.479
510,1.3553106368599583,1005,1012.0493087641114,524,15.869785133213881,0.48
512,1.364965634581111,1005,1012.0536530353177,524,15.738906334337251,0.481
511,1.3335513416072822,1005,1012.0580196208368,524,15.618936542237513,0.482
514,1.3288360642370967,1005,1012.062408501201,524,15.510921811451677,0.483
512,1.3415080288637184,1006,1012.0668196567473,524,15.414476677690324,0.484
514,1.3399936125723366,1005,1012.0712530676179,525,15.327931369914879,0.485
513,1.3646329214550363,1005,1012.0757087137605,525,15.24862711545203,0.486
513,1.3597368850518805,1005,1012.0801865749278,526,15.173315278189806,0.487
513,1.3386199369663108,1005,1012.084686630678,526,15.09860404249538,0.488
513,1.2817572479666735,1006,1012.0892088603742,527,15.021391741940562,0.489
514,1.2244797645223526,1006,1012.0937532431853,526,14.939229832728113,0.49
511,1.224989852564846,1006,1012.0983197580863,526,14.85057078622937,0.491
510,1.2638020154009575,1006,1012.1029083838594,525,14.754875151626667,0.492
511,1.3051556410635787,1006,1012.1075190990932,524,14.652574288310705,0.493
511,1.336882488739275,1006,1012.1121518821824,524,14.544906257908425,0.494
511,1.3373010168330524,1006,1012.1168067113285,524,14.433658006961725,0.495
511,1.3226128284010323,1006,1012.1214835645405,524,14.320855207194452,0.496
510,1.3174176792509213,1006,1012.1261824196349,523,14.208442691143956,0.497
511,1.2977452188518699,1005,1012.1309032542362,523,14.097995792812618,0.498
513,1.303568674220157,1006,1012.1356460457772,522,13.99049778379353,0.499
512,1.2886840669146666,1006,1012.1404107714988,523,13.886210631330192,0.5
513,1.2788137904792634,1006,1012.1451974084497,523,13.784654431517199,0.501
511,1.300385162939012,1006,1012.1500059334884,523,13.684695551292263,0.502
512,1.286913360186528,1006,1012.1548363232822,524,13.584727328168295,0.503
513,1.2880759910692632,1006,1012.1596885543083,524,13.482913412999846,0.504
511,1.2921870800613866,1006,1012.1645626028533,524,13.377454955186035,0.505
512,1.2834856412314575,1006,1012.1694584450131,524,13.266840090373508,0.506
513,1.300124552818123,1006,1012.1743760566935,524,13.150037677111406,0.507
515,1.3004835021768368,1006,1012.1793154136101,524,13.026605774632182,0.508
514,1.356161793446217,1006,1012.1842764912892,524,12.896697257217262,0.509
514,1.4897208679949994,1006,1012.1892592650686,523,12.760958987594371,0.51
510,1.6032307866375373,1006,1012.1942637100971,523,12.620336299582751,0.511
512,1.7709137271925266,1006,1012.1992898013347,521,12.475809816830685,0.512
512,2.0220431884953904,1006,1012.2043375135532,521,12.328104393987404,0.513
511,2.32279170102054,1007,1012.2094068213361,521,12.177417048457494,0.514
511,2.5725424245886623,1006,1012.2144976990782,521,12.023209722501766,0.515
510,2.7033282960158713,1006,1012.2196101209867,520,11.864103586916144,0.516
509,2.694701336709187,1006,1012.2247440610813,521,11.697896942127706,0.517
508,2.8782980911876157,1006,1012.2298994931948,521,11.521711666756133,0.518
511,3.125093997555282,1007,1012.2350763909731,521,11.332255712521757,0.519
512,3.427866709239868,1006,1012.2402747278757,521,11.126173182368873,0.52
510,3.870178240601703,1006,1012.2454944771766,521,10.900441029200953,0.521
512,4.376182761996345,1006,1012.2507356119636,522,10.652763488031717,0.522
512,4.793749369333131,1006,1012.2559981051389,522,10.381912195458906,0.523
512,5.165505894534122,1006,1012.2612819294199,522,10.087962232012801,0.524
507,5.379859304659854,1006,1012.266587057339,521,9.772383546405937,0.525
508,5.401570770945326,1006,1012.2719134612447,521,9.437963994754954,0.526
509,5.528222764027346,1007,1012.2772611133008,519,9.088562668013495,0.527
512,5.681266239983407,1006,1012.2826299854872,519,8.728716372482353,0.528
510,5.865348708636159,1007,1012.2880200496004,518,8.36314383171783,0.529
511,5.996059123209757,1006,1012.2934312772538,516,7.996208127109927,0.53
512,6.118691157227583,1007,1012.2988636398788,516,7.631406153771094,0.531
511,6.269199500974641,1007,1012.3043171087236,515,7.270953310256369,0.532
516,6.38425803248491,1007,1012.3097916548529,515,6.9155215389802205,0.533
518,6.466334365146536,1007,1012.3152872491503,515,6.56416969472537,0.534
519,6.476725067391687,1007,1012.3208038623176,515,6.214479607785467,0.535
520,6.473830106589132,1007,1012.3263414648756,516,5.862883051093236,0.536
525,6.546919157506812,1007,1012.3319000271641,516,5.505138224820271,0.537
526,6.6628516316248945,1007,1012.3374795193423,517,5.1368932131718195,0.538
525,6.808376948715548,1007,1012.3430799113895,517,4.75426160983922,0.539
518,6.923638771897626,1007,1012.3487011731054,516,4.354334609372617,0.54
511,6.9936808678102755,1007,1012.3543432741108,515,3.935564831236908,0.541
498,6.968863534497767,1007,1012.360006183847,515,3.49797766153671,0.542
498,6.941319046472642,1007,1012.3656898715763,514,3.0431911747752194,0.543
493,6.976574974808375,1007,1012.3713943063826,513,2.574250836462567,0.544
488,7.054105472261814,1007,1012.3771194571723,511,2.095307361074236,0.545
483,7.056756499197834,1007,1012.382865292674,511,1.6111838486696601,0.546
488,7.11981566907622,1007,1012.3886317814394,510,1.1268896655828844,0.547
490,7.282107825230805,1007,1012.3944188918439,510,0.647141486923683,0.548
499,7.510855909624453,1008,1012.4002265920866,509,0.17594666237081802,0.549
511,7.769966607148819,1007,1012.4060548501906,508,-0.28370688736401956,0.55
518,7.881818009296044,1007,1012.4119036340028,508,-0.7300241516886697,0.551
519,7.945284853962701,1007,1012.417772911195,508,-1.1624262242870422,0.552
520,7.960348453660999,1008,1012.4236626492645,508,-1.581428237309893,0.553
518,7.973074812912491,1008,1012.4295728155341,509,-1.9883967109439222,0.554
518,7.99406282883395,1008,1012.4355033771519,509,-2.3852283775096828,0.555
519,8.02040092305159,1008,1012.4414543010922,509,-2.7740036999235147,0.556
518,8.022588600914206,1008,1012.4474255541555,508,-3.1566701967156043,0.557
518,8.060427484123686,1008,1012.4534171029696,508,-3.5348025918357924,0.558
514,8.022342666441975,1008,1012.4594289139897,507,-3.9094709193380606,0.559
513,7.9503407433820685,1007,1012.4654609534974,506,-4.281228002702623,0.56
517,7.81214421219728,1008,1012.4715131876033,505,-4.6502080487623,0.561
518,7.60978216652771,1008,1012.4775855822454,505,-5.016311457223499,0.562
519,7.41141726493012,1008,1012.4836781031913,504,-5.3794396207463935,0.563
519,7.139008892393057,1008,1012.489790716038,504,-5.739738476144385,0.564
516,6.875205398894069,1008,1012.4959233862127,503,-6.097810119817422,0.565
513,6.726579704383257,1008,1012.5020760789729,502,-6.454856377202461,0.566
513,6.7442016576983255,1008,1012.5082487594067,502,-6.812726008934191,0.567
518,6.612006471373327,1008,1012.514441392433,502,-7.173848584671511,0.568
516,6.432457778896818,1008,1012.5206539428021,502,-7.541053265164981,0.569
512,6.143694074012277,1008,1012.5268863750955,502,-7.917288485146729,0.57
507,5.7257653605413275,1008,1012.5331386537271,503,-8.305275762896903,0.571
504,5.236702285739181,1009,1012.5394107429436,502,-8.707144191975253,0.572
499,4.7818615870204875,1008,1012.545702606825,503,-9.124099017840528,0.573
499,4.400060385932345,1008,1012.5520142092848,503,-9.556176543946812,0.574
502,4.185687253291583,1008,1012.5583455140705,502,-10.002127935840477,0.575
505,4.197955990850653,1008,1012.5646964847643,500,-10.459456690086073,0.576
509,4.092682573641938,1008,1012.571067084784,499,-10.924610559551715,0.577
513,3.923181196136426,1008,1012.5774572773831,499,-11.393303264991747,0.578
513,3.7779459105423916,1008,1012.5838670256508,497,-11.860920613390206,0.579
513,3.6799932266651902,1009,1012.5902962925124,496,-12.322953820065761,0.58
513,3.5779248460985347,1008,1012.5967450407311,496,-12.775400505254892,0.581
514,3.4665204859611833,1008,1012.6032132329065,495,-13.215080269446206,0.582
515,3.388108957498163,1008,1012.6097008314758,496,-13.639826157665885,0.583
516,3.2958297927572713,1009,1012.6162077987154,496,-14.04853357823809,0.584
513,3.2785598926329502,1009,1012.6227340967401,495,-14.44107025005344,0.585
512,3.2827908749288017,1009,1012.6292796875035,495,-14.818070100408116,0.586
516,3.224331383109559,1009,1012.6358445327976,496,-15.180648291636556,0.587
515,3.1180187918962945,1009,1012.6424285942546,496,-15.530083739853895,0.588
511,3.004771804843733,1009,1012.6490318333474,496,-15.86751983615915,0.589
510,2.871060254616983,1009,1012.6556542113892,496,-16.19373208914618,0.59
511,2.8067739054859926,1009,1012.6622956895346,495,-16.50900125257632,0.591
508,2.8242830531793754,1009,1012.6689562287803,494,-16.81311262132834,0.592
508,2.8893286345980846,1009,1012.675635789965,493,-17.10547973995443,0.593
511,2.975836820191783,1009,1012.6823343337707,492,-17.385368481283827,0.594
510,3.2704173511570716,1009,1012.689051820722,492,-17.652180080949037,0.595
511,3.836257232362511,1009,1012.6957882111869,491,-17.905742468075914,0.596
512,4.381221625577215,1009,1012.7025434653774,491,-18.146558758424593,0.597
513,4.712554478678476,1009,1012.7093175433497,490,-18.375968679686764,0.598
511,4.76776776741571,1010,1012.7161104050056,491,-18.596191075304045,0.599
511,4.584130634813715,1010,1012.7229220100916,491,-18.8102318956432,0.6
510,4.54717570505234,1010,1012.7297523181995,491,-19.02166031932706,0.601
513,4.710236936632273,1010,1012.7366012887686,491,-19.234272968215517,0.602
514,5.19096644384872,1010,1012.7434688810852,490,-19.451679793228134,0.603
515,6.087553142169838,1010,1012.7503550542835,491,-19.676854236209955,0.604
514,7.404995402979731,1010,1012.7572597673463,491,-19.91169586740664,0.605
510,8.501266549375199,1010,1012.7641829791039,492,-20.156656980959404,0.606
509,9.004543626657755,1010,1012.7711246482355,492,-20.410484639554507,0.607
510,9.024045475443867,1010,1012.7780847332693,492,-20.67012353783028,0.608
510,9.23483045103744,1010,1012.7850631925832,491,-20.93081031264608,0.609
510,9.44898130398477,1010,1012.7920599844048,489,-21.186366706170983,0.61
509,9.79384545576502,1010,1012.7990750668123,489,-21.42967089628249,0.611
512,10.137749346937934,1010,1012.806108397735,488,-21.653259495530776,0.612
513,10.374934950062402,1010,1012.8131599349545,487,-21.849993157501714,0.613
511,10.629413546012392,1010,1012.8202296361051,487,-22.01370944260412,0.614
512,10.82140809301134,1010,1012.8273174586742,486,-22.139787478785117,0.615
512,10.996635495651663,1010,1012.8344233600027,486,-22.22555870973334,0.616
515,11.133237985899724,1010,1012.841547297286,486,-22.270515399747882,0.617
520,11.156280610973026,1010,1012.8486892275735,487,-22.27629216792827,0.618
529,11.136237879608835,1010,1012.8558491077704,487,-22.24642352494526,0.619
538,11.129595907365854,1010,1012.8630268946379,488,-22.185908951768088,0.62
541,11.11286203845939,1010,1012.8702225447935,490,-22.1006426174993,0.621
534,11.11926955391728,1010,1012.8774360147114,491,-21.996783682334563,0.622
524,11.146408245384471,1010,1012.8846672607225,491,-21.88015168303282,0.623
513,11.144629235641768,1011,1012.8919162390154,491,-21.75572645374234,0.624
501,11.127754913684315,1011,1012.8991829056368,490,-21.62731256264547,0.625
494,11.126566959981638,1011,1012.9064672164927,489,-21.497398089736418,0.626
482,11.157804052104547,1011,1012.913769127349,489,-21.367204039267982,0.627
463,11.165101277382053,1011,1012.9210885938323,488,-21.236891380801097,0.628
441,11.178535799950335,1011,1012.9284255714296,488,-21.105872828562532,0.629
453,11.179332283224523,1011,1012.9357800154879,488,-20.9731678632509,0.63
482,11.181192430720799,1011,1012.9431518812156,488,-20.837741483938785,0.631
506,11.189222177715868,1011,1012.950541123683,489,-20.698777698672217,0.632
523,11.221030485627118,1011,1012.9579476978231,489,-20.555854958030682,0.633
525,11.29875741699748,1011,1012.9653715584325,489,-20.409009249492993,0.634
528,11.381023143641116,1011,1012.972812660171,490,-20.25868839421046,0.635
528,11.467819285836836,1011,1012.9802709575625,491,-20.10561645882183,0.636
526,11.54174106519743,1011,1012.9877464049956,491,-19.9505992501761,0.637
527,11.600955650715981,1011,1012.9952389567244,491,-19.794309406362288,0.638
521,11.619695417232531,1011,1013.0027485668688,492,-19.637091286826983,0.639
522,11.684445604042011,1011,1013.0102751894151,492,-19.478821727214576,0.64
519,11.684435084104944,1011,1013.0178187782171,492,-19.318854165446755,0.641
517,11.652647350014059,1011,1013.0253792869956,492,-19.156061913312467,0.642
515,11.574261638835816,1011,1013.0329566693398,492,-18.988982297570715,0.643
513,11.376762017260496,1011,1013.040550878707,492,-18.8160484257901,0.644
514,11.06508320539768,1011,1013.0481618684238,491,-18.63588132798998,0.645
514,10.71181153255186,1011,1013.0557895916861,491,-18.447603901865197,0.646
515,10.35460402468817,1012,1013.0634340015606,491,-18.251131165295796,0.647
512,10.126588627871099,1012,1013.0710950509854,491,-18.047390622561895,0.648
514,10.104416708328083,1011,1013.0787726927703,492,-17.838432947737665,0.649
514,10.281377006644746,1011,1013.0864668795963,491,-17.627405578790743,0.65
518,10.275501344446605,1011,1013.0941775640173,492,-17.418377769332903,0.651
513,10.013889923427392,1011,1013.1019046984602,492,-17.216023104734884,0.652
517,9.518440111461526,1011,1013.1096482352259,493,-17.02518358928334,0.653
515,8.874737805135068,1011,1013.1174081264894,495,-16.850357470669167,0.654
512,8.09618689640052,1012,1013.1251843243002,495,-16.695168843902856,0.655
510,7.669579022198488,1012,1013.1329767805836,496,-16.561886875325204,0.656
509,7.646458348019609,1012,1013.1407854471407,496,-16.4510623461902,0.657
507,7.795503129206197,1012,1013.1486102756492,496,-16.361337734907934,0.658
507,7.548848345353066,1012,1013.1564512176635,496,-16.289466025529414,0.659
507,7.386377105388093,1012,1013.1643082246167,495,-16.230546424179703,0.66
506,7.1582203483571805,1012,1013.1721812478191,494,-16.178456086342013,0.661
509,6.943930684125359,1012,1013.1800702384609,493,-16.12642985785021,0.662
509,6.780120079270271,1012,1013.1879751476109,493,-16.067719347516263,0.663
509,6.61365498759396,1012,1013.1958959262189,493,-15.996252374493451,0.664
510,6.556030296259551,1012,1013.2038325251146,493,-15.907215638505045,0.665
512,6.4346675314391,1012,1013.2117848950093,493,-15.797495692394357,0.666
510,6.366387153158889,1012,1013.2197529864957,494,-15.66593227654017,0.667
512,6.325871716220168,1012,1013.2277367500495,493,-15.513360284179324,0.668
514,6.3301165703657585,1012,1013.2357361360295,494,-15.342439705710863,0.669
522,6.386273925414746,1012,1013.2437510946783,495,-15.157295581419524,0.67
524,6.424613585102887,1012,1013.2517815761228,497,-14.96301149663519,0.671
524,6.454947791795126,1012,1013.2598275303742,497,-14.765038644272906,0.672
524,6.506135395263516,1012,1013.2678889073296,498,-14.56859405285254,0.673
523,6.522947171216399,1012,1013.275965656772,498,-14.378122200378202,0.674
517,6.523254218963517,1012,1013.2840577283711,498,-14.196882920245507,0.675
512,6.4924696831059325,1012,1013.2921650716835,498,-14.02670784476399,0.676
508,6.467453289864401,1012,1013.3002876361529,497,-13.867941784885742,0.677
496,6.460791523631265,1013,1013.3084253711113,496,-13.719558601341854,0.678
481,6.439754390186586,1012,1013.3165782257792,496,-13.579417433333392,0.679
475,6.4154483545334955,1012,1013.3247461492673,496,-13.444608720550262,0.68
484,6.3770770721485945,1012,1013.3329290905766,496,-13.31183310420274,0.681
499,6.343327938224149,1013,1013.3411269985984,496,-13.177759980614656,0.682
508,6.2549805445172115,1013,1013.3493398221156,497,-13.039323550652398,0.683
517,6.174842285112202,1012,1013.3575675098039,497,-12.89392929291357,0.684
517,6.123243980088596,1013,1013.3658100102317,497,-12.739560009602878,0.685
517,6.059469974411807,1013,1013.3740672718606,497,-12.574785756301837,0.686
518,5.943072738603013,1013,1013.3823392430464,499,-12.398695038515415,0.687
518,5.892959442281344,1012,1013.3906258720394,499,-12.210775653721146,0.688
518,5.868562443363937,1013,1013.3989271069845,500,-12.010781773552004,0.689
515,5.871039733909795,1013,1013.4072428959221,500,-11.798626874181648,0.69
515,5.854831472675507,1013,1013.4155731867894,501,-11.574337617662382,0.691
514,5.874912857177473,1013,1013.4239179274208,500,-11.33809167118791,0.692
514,5.877354913803339,1012,1013.4322770655488,500,-11.090344678407345,0.693
515,5.890722614488784,1013,1013.4406505488043,499,-10.832031212515504,0.694
514,5.877198033811899,1013,1013.4490383247178,499,-10.564805543441484,0.695
515,5.678880183891596,1013,1013.4574403407183,499,-10.291274836756953,0.696
515,5.427601999152808,1013,1013.4658565441351,499,-10.015173089320157,0.697
513,5.166733829768299,1012,1013.4742868821983,499,-9.741429281425757,0.698
511,4.915207359786074,1013,1013.4827313020396,500,-9.476096334361923,0.699
512,4.714576502185218,1014,1013.4911897506927,501,-9.226126041423719,0.7
509,4.602700021854869,1013,1013.4996621750934,501,-8.9989962826613,0.701
512,4.590435633855577,1013,1013.5081485220802,502,-8.802217074442861,0.702
510,4.582716581334981,1013,1013.5166487383952,502,-8.642758149517542,0.703
511,4.312267693203094,1014,1013.525162770685,503,-8.526451242924532,0.704
512,3.7843989050350166,1013,1013.533690565501,503,-8.457425076000218,0.705
511,3.1332857974691057,1013,1013.5422320693008,503,-8.437630527919074,0.706
512,2.6837717075978977,1013,1013.5507872284476,504,-8.466507824366643,0.707
510,2.569592842106237,1014,1013.5593559892114,504,-8.540837046994897,0.708
509,2.5960880728033713,1014,1013.5679382977706,503,-8.654798199653273,0.709
509,2.474946790451097,1014,1013.5765341002116,503,-8.800247668845726,0.71
512,2.3550831560949366,1014,1013.5851433425296,502,-8.967195255147232,0.711
513,2.2328079229678672,1014,1013.5937659706295,501,-9.144442865394971,0.712
511,2.088664917499554,1013,1013.6024019303267,500,-9.320326184902378,0.713
508,1.9608913316244312,1014,1013.6110511673468,500,-9.483487446151718,0.714
512,1.8596245206516555,1014,1013.6197136273265,499,-9.62360301341068,0.715
513,1.8411141089954797,1014,1013.6283892558142,499,-9.73199472857302,0.716
513,1.8494122074854908,1014,1013.6370779982714,499,-9.802067916857055,0.717
511,1.8021778728888396,1014,1013.6457798000725,499,-9.829539670163014,0.718
509,1.779210360340233,1014,1013.6544946065061,500,-9.812446243110779,0.719
513,1.7223060174314333,1014,1013.6632223627753,501,-9.750945471379614,0.72
513,1.6973011095846333,1014,1013.6719630139987,502,-9.646955676883435,0.721
512,1.6431764996935194,1014,1013.6807165052105,503,-9.503692494127783,0.722
513,1.5722797074287875,1014,1013.6894827813616,504,-9.325175438323452,0.723
515,1.7232736100927208,1014,1013.6982617873194,503,-9.115774191604848,0.724
513,2.210802686135398,1014,1013.7070534678699,503,-8.8798503773872,0.725
511,2.7432886850782774,1014,1013.7158577677171,502,-8.621527093138143,0.726
510,3.109082354800049,1014,1013.7246746314847,502,-8.34459162275886,0.727
512,3.4835650044486948,1014,1013.7335040037161,502,-8.052513276197697,0.728
509,3.7249148906159104,1014,1013.7423458288755,502,-7.74854285486928,0.729
510,3.77843981405916,1014,1013.751200051348,503,-7.4358540149997845,0.73
508,4.383854896907527,1014,1013.7600666154399,503,-7.117688184923696,0.731
507,5.360163419960854,1015,1013.7689454653805,503,-6.797470742909627,0.732
508,6.448380099957847,1014,1013.7778365453227,503,-6.478874148937391,0.733
513,7.210144022748808,1015,1013.7867397993422,504,-6.165812437416058,0.734
512,7.318065316673623,1015,1013.7956551714394,505,-5.8623612362481055,0.735
511,7.519741763949623,1015,1013.8045826055393,504,-5.57260836463888,0.736
510,7.810260652750749,1015,1013.8135220454931,505,-5.300450692993073,0.737
513,7.994716169516679,1015,1013.8224734350789,507,-5.049361765303762,0.738
513,8.138543768284304,1015,1013.8314367180016,507,-4.822161195397553,0.739
515,8.208817717596835,1015,1013.8404118378944,507,-4.620820106652393,0.74
515,8.246775913791264,1015,1013.8493987383195,507,-4.446334502398433,0.741
512,8.245509170666885,1015,1013.8583973627673,507,-4.298689260105078,0.742
508,8.244052774179414,1015,1013.867407654658,507,-4.176921725957261,0.743
510,8.295735759337896,1015,1013.8764295573422,507,-4.0792794608792535,0.744
508,8.322853790887198,1015,1013.8854630141011,507,-4.003453951393206,0.745
510,8.430137242640516,1015,1013.8945079681469,506,-3.9468616765965536,0.746
510,8.580185306475386,1015,1013.903564362624,506,-3.9069360313140122,0.747
519,8.71536894066783,1015,1013.9126321406098,505,-3.881389170965207,0.748
534,8.752978963021137,1016,1013.9217112451153,505,-3.8684036213882327,0.749
537,8.775698260968893,1016,1013.9308016190853,506,-3.866721127303001,0.75
530,8.80381702264153,1016,1013.9399032053998,506,-3.875610805286609,0.751
529,8.788795818135391,1015,1013.949015946874,506,-3.89471791558884,0.752
523,8.786353329248604,1016,1013.9581397862593,507,-3.923814463834111,0.753
506,8.830709508632879,1016,1013.9672746662438,508,-3.9624897474191623,0.754
479,8.849830146077345,1016,1013.9764205294534,508,-4.009830610480347,0.755
460,8.839083816175027,1016,1013.985577318452,508,-4.064145755653947,0.756
455,8.7794959405535,1016,1013.994744975742,508,-4.12278445663033,0.757
470,8.733860194836371,1016,1014.0039234437651,508,-4.182087720992157,0.758
501,8.70631662497613,1016,1014.0131126649026,508,-4.237491845109069,0.759
523,8.687748803816936,1016,1014.0223125814764,507,-4.283783274720526,0.76
525,8.668388560023118,1016,1014.0315231357499,506,-4.315481867280566,0.761
521,8.654846153775175,1015,1014.0407442699278,505,-4.327309293135468,0.762
519,8.677562250784321,1016,1014.0499759261569,505,-4.314683887966425,0.763
518,8.682443660905415,1016,1014.0592180465276,505,-4.274176648166505,0.764
513,8.661640601624942,1016,1014.0684705730739,505,-4.203867141785248,0.765
510,8.594184378272207,1016,1014.077733447774,505,-4.103551512102932,0.766
512,8.514165191043755,1016,1014.0870066125509,505,-3.974774112334901,0.767
515,8.504193738343266,1016,1014.0962900092733,506,-3.8206766229163924,0.768
516,8.48278168777777,1016,1014.1055835797561,507,-3.6456819413212886,0.769
518,8.62150769900694,1016,1014.1148872657618,508,-3.4550528680442265,0.77
521,8.828075925260714,1016,1014.1242010090008,509,-3.254384563485879,0.771
519,8.981908052580122,1016,1014.1335247511319,510,-3.049101060239098,0.772
516,9.060654100416722,1016,1014.1428584337634,510,-2.844026791278217,0.773
516,8.903089057326564,1016,1014.1522019984534,510,-2.6430931898607124,0.774
516,8.459579124722394,1016,1014.161555386711,510,-2.4492193240061297,0.775
513,8.006183643325638,1016,1014.1709185399965,509,-2.2643777375234637,0.776
512,7.613968653973228,1016,1014.1802913997218,508,-2.0898269338095545,0.777
510,7.317779618990636,1016,1014.1896739072513,508,-1.9264652590248572,0.778
510,7.258229225763588,1016,1014.1990660039028,507,-1.7752419034240032,0.779
511,7.467573218937242,1016,1014.2084676309486,508,-1.6375526181445108,0.78
513,7.10726915041707,1016,1014.217878729616,507,-1.5155513197187769,0.781
510,6.2812667832080535,1017,1014.2272992410874,508,-1.4123221941527357,0.782
511,5.416325206068873,1016,1014.2367291065004,508,-1.3318770730348077,0.783
513,4.712448852188894,1016,1014.2461682669498,508,-1.2789666424116082,0.784
512,4.589594360050375,1016,1014.2556166634869,509,-1.2587188965590757,0.785
513,4.434581630469717,1017,1014.2650742371212,510,-1.2761420148203515,0.786
510,4.28080181638284,1016,1014.2745409288214,511,-1.3355493211423635,0.787
511,4.1697781622957635,1016,1014.2840166795158,511,-1.4399782345882755,0.788
510,4.073642142070787,1017,1014.2935014300937,511,-1.5906797453041628,0.789
512,4.028341806892855,1017,1014.3029951214043,511,-1.7867480810065282,0.79
512,4.089501138500591,1017,1014.3124976942579,511,-2.024942994543835,0.791
512,4.14492026034755,1017,1014.3220090894258,510,-2.299732652576813,0.792
512,4.144299523637054,1017,1014.3315292476415,508,-2.603556678022075,0.793
519,4.110017799242659,1017,1014.3410581096006,507,-2.927279715977449,0.794
523,4.129344845119446,1017,1014.3505956159621,506,-3.2607804590639606,0.795
519,4.078329347917613,1017,1014.3601417073492,505,-3.593604823011664,0.796
515,3.9394051974824738,1017,1014.3696963243501,506,-3.915608579447147,0.797
511,3.8099072786629615,1017,1014.3792594075188,506,-4.217523907771343,0.798
508,3.7513942865666587,1017,1014.3888308973764,505,-4.491401896050655,0.799
506,3.708403271761896,1017,1014.3984107344111,505,-4.730903272243682,0.8
509,3.660062640319777,1017,1014.407998859079,505,-4.931428444766359,0.801
506,3.664022979034344,1017,1014.417595211804,506,-5.090094503350971,0.802
499,3.6961094412217794,1017,1014.4271997329785,506,-5.205581882308358,0.803
496,3.6834622497510647,1017,1014.4368123629647,506,-5.27788602689758,0.804
497,3.7164338314966425,1017,1014.4464330420947,506,-5.308017181206923,0.805
502,3.7615703641936546,1017,1014.4560617106713,506,-5.297692956157414,0.806
498,3.793971004754174,1017,1014.4656983089689,507,-5.249064609763953,0.807
506,3.736739816282673,1017,1014.4753427772333,507,-5.164510806777262,0.808
512,3.753863005315239,1017,1014.4849950556838,507,-5.046522687841134,0.809
516,3.77212951514232,1017,1014.4946550845132,507,-4.897690800523753,0.81
517,3.774171884176649,1017,1014.5043228038877,506,-4.720787776068086,0.811
516,3.8106508701494204,1017,1014.5139981539484,505,-4.5189225061252,0.812
514,3.835789575547364,1017,1014.5236810748111,505,-4.295725818698563,0.813
516,3.8246364053408364,1017,1014.5333715065672,505,-4.055518814791694,0.814
516,3.824732767681364,1017,1014.5430693892848,506,-3.8034163907335787,0.815
515,3.959200152566774,1017,1014.5527746630095,507,-3.545329983883901,0.816
512,4.1024247187116245,1017,1014.5624872677653,507,-3.287851436083399,0.817
513,4.175851234014978,1017,1014.5722071435541,507,-3.0380185765682723,0.818
517,4.182292000634175,1018,1014.5819342303573,508,-2.8029786326341943,0.819
515,4.047624321782863,1018,1014.5916684681366,508,-2.5895769868417706,0.82
514,3.855874334904599,1018,1014.6014097968338,509,-2.4039071998905825,0.821
512,3.700430381917044,1018,1014.6111581563719,509,-2.2508642021240206,0.822
512,3.6442405558666495,1017,1014.6209134866558,510,-2.1337454005745533,0.823
510,3.6652315864875984,1018,1014.6306757275728,510,-2.053943059186527,0.824
512,3.668707054336716,1017,1014.6404448189932,510,-2.010765003948873,0.825
511,3.723157315221058,1018,1014.6502207007718,510,-2.00140940606358,0.826
510,3.7964897736590384,1018,1014.6600033127481,509,-2.0211039524467918,0.827
510,3.743624716105027,1018,1014.6697925947466,509,-2.0634021507549583,0.828
508,3.6136782746074014,1018,1014.679588486577,509,-2.120612648427159,0.829
508,3.3399234328002656,1018,1014.6893909280352,508,-2.1843238273287127,0.83
511,3.3109269616960004,1018,1014.6991998589042,508,-2.2459768807942524,0.831
512,3.5639467433912704,1018,1014.7090152189548,507,-2.297436291742036,0.832
515,3.7782287483023143,1018,1014.7188369479462,507,-2.3315073323242306,0.833
513,3.8877517005970508,1018,1014.7286649856254,508,-2.342356559202353,0.834
512,3.8360431674334112,1018,1014.7384992717296,508,-2.3258032692464514,0.835
514,3.807046934707336,1018,1014.7483397459857,508,-2.279465522108358,0.836
515,3.74164369674873,1018,1014.7581863481124,508,-2.2027601396269736,0.837
511,3.7309337605226207,1018,1014.7680390178194,508,-2.0967694125391105,0.838
513,3.756260912603016,1019,1014.7778976948089,509,-1.9639979164138024,0.839
519,3.782866843559408,1018,1014.7877623187755,510,-1.8080519778110824,0.84
519,3.7810754711195367,1019,1014.7976328294079,511,-1.6332817859051951,0.841
516,3.7854597672835166,1019,1014.8075091663881,511,-1.4444294738095018,0.842
512,3.8968701225748528,1018,1014.817391269393,510,-1.2463225465470846,0.843
513,3.9807874178133793,1019,1014.8272790780954,510,-1.0436399397295828,0.844
508,4.084003761931463,1019,1014.8371725321637,510,-0.8407609192583514,0.845
511,4.350082220754641,1018,1014.847071571263,510,-0.6416905679981301,0.846
512,4.6424088987539065,1018,1014.8569761350554,510,-0.45004403710507884,0.847
513,4.933467111971737,1018,1014.8668861632004,510,-0.2690660325444532,0.848
508,5.194022733517013,1019,1014.8768015953564,510,-0.1016610326685561,0.849
504,5.3062072520375505,1019,1014.8867223711808,510,0.049587668845276545,0.85
506,5.301891065367738,1019,1014.8966484303304,510,0.18242636174142354,0.851
509,5.3355673834079225,1019,1014.906579712462,511,0.2949746555859079,0.852
515,5.414802282891612,1019,1014.9165161572339,511,0.38580200790761654,0.853
511,5.64104628822889,1019,1014.9264577043069,512,0.45402351904721344,0.854
500,5.9419429681237235,1019,1014.9364042933436,512,0.4993923428557015,0.855
489,6.3027622415445625,1019,1014.9463558640095,513,0.5223611959998437,0.856
489,6.786428446180827,1019,1014.9563123559738,513,0.5240864209738548,0.857
500,7.364604659062294,1019,1014.9662737089092,512,0.5063554861753032,0.858
511,7.574175008320047,1019,1014.9762398624924,512,0.47143221542741864,0.859
514,7.63574188986094,1019,1014.9862107564056,511,0.42183121027810405,0.86
515,7.791953377490167,1019,1014.9961863303372,510,0.36004990311742513,0.861
515,7.9106655512261845,1019,1015.0061665239829,510,0.28829918297747137,0.862
516,7.9931813110744905,1019,1015.0161512770457,509,0.20827846325290297,0.863
517,8.144475978365328,1019,1015.0261405292363,510,0.12103701871800186,0.864
516,8.280880591726193,1019,1015.0361342202732,510,0.02695097149196364,0.865
515,8.28721930904659,1019,1015.0461322898844,510,-0.07417291110077218,0.866
517,8.23775139635241,1019,1015.056134677808,510,-0.18287549096442202,0.867
517,8.234666153020898,1019,1015.0661413237924,511,-0.2997328433756498,0.868
521,8.300452563221375,1019,1015.0761521675975,511,-0.4249951230942269,0.869
528,8.305984662590372,1019,1015.0861671489953,512,-0.5582287784064482,0.87
527,8.283346212777067,1019,1015.0961862077708,512,-0.6980181651973741,0.871
526,8.290331668986633,1020,1015.106209283721,512,-0.8417787080283688,0.872
524,8.268390894832425,1019,1015.1162363166559,511,-0.9857211631329742,0.873
518,8.237240484992707,1020,1015.1262672463994,511,-1.1249864621723418,0.874
511,8.198031118273319,1019,1015.13630201279,510,-1.2539463213834383,0.875
508,8.074268139140116,1019,1015.1463405556814,509,-1.3666405574690028,0.876
504,8.003599880690611,1020,1015.1563828149426,508,-1.457301714107252,0.877
497,7.978382244053018,1019,1015.1664287304591,508,-1.5209041914863637,0.878
491,7.910376708347982,1020,1015.1764782421334,508,-1.5536708792476692,0.879
488,7.8992883347810485,1019,1015.1865312898855,508,-1.5534760564355587,0.88
485,7.714077366061642,1019,1015.1965878136539,508,-1.5200972732313645,0.881
481,7.3122896790542695,1020,1015.2066477533958,508,-1.4552876776195036,0.882
498,6.875297425179528,1020,1015.2167110490881,509,-1.3626608363452524,0.883
514,6.701306293864486,1020,1015.2267776407274,510,-1.2474007532554654,0.884
519,6.712574011977787,1020,1015.236847468331,510,-1.1158287996503167,0.885
518,6.645949936855767,1020,1015.2469204719375,510,-0.9748740961087147,0.886
518,6.582899754754722,1020,1015.2569965916074,511,-0.8315023064547475,0.887
519,6.516216446047778,1020,1015.2670757674238,511,-0.6921596829879176,0.888
519,6.434055130213444,1020,1015.277157939493,512,-0.5622859927974972,0.889
518,6.33004143668872,1020,1015.2872430479451,512,-0.44594257976388524,0.89
516,6.244952111315413,1020,1015.2973310329338,512,-0.34558995469363796,0.891
515,6.179557271788319,1020,1015.3074218346377,511,-0.26203269114587185,0.892
515,6.058159943631341,1020,1015.3175153932614,511,-0.19452930657339987,0.893
513,5.943541473934237,1020,1015.3276116490354,510,-0.14104439492657433,0.894
509,5.744562697337645,1020,1015.337710542217,510,-0.09860356028410192,0.895
511,5.413511781376544,1020,1015.3478120130909,510,-0.0637017781977937,0.896
510,5.1068731395500695,1020,1015.3579160019694,510,-0.032713751903781785,0.897
512,4.813659577745722,1020,1015.3680224491927,510,-0.0022596881232497396,0.898
510,4.547845734896712,1020,1015.3781312951304,510,0.030510489163640363,0.899
513,4.415224160796758,1020,1015.3882424801812,510,0.06773936102599075,0.9
512,4.418227153418678,1020,1015.3983559447737,510,0.11080229261798832,0.901
512,4.380230581165701,1020,1015.4084716293662,511,0.16036355689026444,0.902
512,4.259428148643286,1020,1015.4185894744489,511,0.21653220882750057,0.903
512,4.00439827206294,1020,1015.4287094205434,512,0.27908894533421524,0.904
510,3.6521180772092436,1020,1015.4388314082036,512,0.34774577886136343,0.905
513,3.2380222956633347,1020,1015.4489553780159,512,0.4223961709088846,0.906
512,2.7413181578246144,1020,1015.4590812706006,513,0.5033151253512695,0.907
510,2.1655686925054933,1020,1015.4692090266116,513,0.5912761147291289,0.908
512,1.928536973331018,1020,1015.4793385867373,512,0.6875635865259757,0.909
511,1.8486610536449806,1020,1015.4894698917017,512,0.7938751816825526,0.91
512,1.7105096258604802,1020,1015.4996028822641,512,0.9121249154246157,0.911
510,1.577394449654662,1020,1015.5097374992198,511,1.044174271745202,0.912
514,1.4403663439324572,1020,1015.519873683401,511,1.1915292893747602,0.913
510,1.295696412204296,1020,1015.530011375678,511,1.3550465228146604,0.914
512,1.1593643992785314,1020,1015.5401505169598,512,1.5346886875388257,0.915
512,1.0638886231929316,1020,1015.5502910481945,512,1.7293623583827602,0.916
513,1.0483037664882415,1020,1015.5604329103697,512,1.9368575196424889,0.917
511,1.1417037594649415,1020,1015.5705760445132,513,2.153895312144178,0.918
512,1.2274000662278952,1020,1015.5807203916931,513,2.3762782461620553,0.919
511,1.328277933477827,1020,1015.5908658930185,513,2.5991270769106647,0.92
511,1.3803232743751668,1020,1015.6010124896403,514,2.817180474046851,0.921
512,1.4342648072123234,1020,1015.6111601227512,515,3.0251275953690593,0.922
512,1.5630269253723217,1020,1015.6213087335868,515,3.217940016247345,0.923
511,1.6345808215532673,1020,1015.6314582634262,515,3.391169304948656,0.924
511,1.6391085098071265,1020,1015.6416086535918,515,3.541181232920137,0.925
511,1.6637208763985891,1020,1015.6517598454496,515,3.66530687653362,0.926
512,1.8777306065072763,1020,1015.6619117804105,515,3.7619023441910433,0.927
511,2.252242709618587,1020,1015.6720643999308,515,3.8303199481097643,0.928
509,2.5173734197470363,1020,1015.6822176455131,515,3.8708030170747616,0.929
510,2.655813661602426,1020,1015.6923714587061,514,3.884324003151162,0.93
510,2.655303628833339,1020,1015.7025257811065,514,3.872390955584005,0.931
511,2.7726152420178862,1020,1015.7126805543589,515,3.8368500818665168,0.932
512,2.814090540020217,1020,1015.7228357201565,514,3.7797110922472674,0.933
511,2.8053812344141917,1020,1015.7329912202412,513,3.7030176157026746,0.934
512,2.808753660663774,1020,1015.7431469964047,513,3.60877846591756,0.935
512,2.8479997798452827,1020,1015.7533029904891,514,3.4989670242036013,0.936
511,2.9161519505806646,1020,1015.7634591443867,515,3.37558422807333,0.937
512,2.9807695701661654,1020,1015.7736154000405,515,3.2407663281470027,0.938
512,3.079237946263547,1020,1015.7837716994454,515,3.0969062159232825,0.939
513,3.0851147200175535,1020,1015.7939279846487,515,2.94675190498235,0.94
515,3.091638159045083,1020,1015.8040841977498,515,2.7934494264358496,0.941
519,3.0887872226051236,1020,1015.8142402809011,514,2.6405080699875105,0.942
519,3.0978468389438096,1020,1015.824396176308,514,2.4916804645642863,0.943
517,3.114581667380494,1020,1015.8345518262292,513,2.3507656323770356,0.944
514,3.1219757523995755,1020,1015.8447071729777,513,2.2213572923760294,0.945
507,3.151547917297775,1020,1015.8548621589208,512,2.1065701269426653,0.946
503,3.150176812078343,1020,1015.8650167264819,512,2.008782101489466,0.947
507,3.2167309870726104,1020,1015.8751708181412,511,1.9294306811414643,0.948
509,3.3400908593156724,1020,1015.8853243764356,512,1.8688947577496684,0.949
509,3.4203048146241746,1020,1015.8954773439594,512,1.8264825818272359,0.95
498,3.5213758069339294,1020,1015.9056296633643,512,1.8005304001229976,0.951
492,3.6818422514920006,1020,1015.9157812773603,513,1.788599596318958,0.952
496,3.865577509942857,1020,1015.9259321287166,513,1.7877450399053667,0.953
504,3.9897551242938034,1020,1015.9360821602614,515,1.7948164227173191,0.954
512,3.946070727803097,1020,1015.946231314883,514,1.8067494287789339,0.955
518,4.0627019642970055,1020,1015.9563795355298,513,1.8208064026579183,0.956
513,4.319539995852892,1020,1015.9665267652108,514,1.834737159843571,0.957
512,4.596707997478237,1020,1015.9766729469966,513,1.8468470114661895,0.958
512,4.851510862464104,1020,1015.986818024019,512,1.8559762042522165,0.959
513,5.0871395717117736,1020,1015.9969619394718,512,1.8614090262904746,0.96
516,5.197474170733798,1020,1016.0071046366122,512,1.862739772795602,0.961
515,5.308677875668617,1020,1016.0172460587603,513,1.8597253373103482,0.962
518,5.313610098271148,1020,1016.0273861492993,513,1.8521506499169376,0.963
512,5.408226636206937,1020,1016.0375248516763,512,1.8397264700015523,0.964
511,5.469778942346469,1020,1016.0476621094031,512,1.8220329500833696,0.965
510,5.519129840425313,1020,1016.0577978660563,512,1.7985181939251929,0.966
513,5.5606127535457865,1020,1016.0679320652774,512,1.7685568395031042,0.967
512,5.484642661206697,1020,1016.0780646507745,512,1.7315672031347982,0.968
513,5.345050329937963,1020,1016.0881955663224,513,1.6871765531598875,0.969
513,5.226729012820377,1020,1016.0983247557631,513,1.6354144248739972,0.97
513,5.169213136282671,1020,1016.1084521630066,513,1.576905984586792,0.971
515,5.151202917812503,1020,1016.1185777320308,513,1.5130335025385715,0.972
518,5.058550406259599,1020,1016.1287014068822,514,1.4460350696871112,0.973
516,5.006172311333353,1020,1016.1388231316773,513,1.3790154189553607,0.974
517,5.020157300849438,1020,1016.1489428506025,513,1.3158532635080453,0.975
520,5.024927170589334,1020,1016.1590605079135,513,1.261002248957555,0.976
521,4.810796001900195,1020,1016.1691760479374,512,1.2191970998120158,0.977
518,4.494680488562251,1020,1016.1792894150719,512,1.1950906128037708,0.978
511,4.22912016345855,1020,1016.1894005537863,511,1.1928586065525064,0.979
504,4.10321582665506,1020,1016.1995094086225,511,1.2158169962950147,0.98
497,4.098042030467811,1020,1016.2096159241947,511,1.2660963551955302,0.981
497,3.9625131791382695,1020,1016.2197200451907,511,1.344413915202021,0.982
497,4.00158981200095,1020,1016.229821716372,512,1.4499716059989423,0.983
499,4.041380465038378,1020,1016.2399208825741,512,1.5804935426847464,0.984
504,4.108801994057626,1020,1016.2500174887062,512,1.7324002792296649,0.985
504,4.161995575949428,1020,1016.2601114797525,512,1.90110271803361,0.986
510,4.099614364622498,1020,1016.2702028007727,513,2.0813867972656848,0.987
517,4.058205214330818,1020,1016.2802913969033,514,2.2678503913130146,0.988
515,4.094607927205532,1020,1016.2903772133574,515,2.455346009495855,0.989
516,4.295515276727692,1020,1016.300460195425,515,2.63937872130146,0.99
517,4.5230576723426426,1020,1016.3105402884731,515,2.8164113510480258,0.991
516,4.75723684172351,1020,1016.320617437947,515,2.9840398412600524,0.992
512,4.955500709866796,1020,1016.3306915893704,515,3.1410190494600476,0.993
511,4.978423240658669,1020,1016.3407626883453,515,3.2871394149823074,0.994
509,4.993708109613926,1020,1016.3508306805533,514,3.422974592860842,0.995
509,4.995361417012526,1020,1016.3608955117559,514,3.549537252348974,0.996
508,5.162980930188077,1020,1016.3709571277943,513,3.6678931176060834,0.997
513,5.473970834680623,1020,1016.3810154745909,513,3.7787899496430524,0.998
512,5.678522526811824,1020,1016.3910704981487,513,3.88235664619314,0.999
514,5.777808237815428,1020,1016.4011221445522,514,3.9779173557457193,1.0
512,5.881924572109643,1020,1016.4111703599679,514,4.063947885730881,1.001
515,5.906756767386716,1020,1016.4212150906442,515,4.1381801860901275,1.002
512,5.813653787847502,1020,1016.4312562829122,515,4.197839665359353,1.003
511,5.697939002283313,1020,1016.441293883186,515,4.239983032764885,1.004
513,5.905933681332618,1020,1016.451327837963,516,4.261892805336793,1.005
512,6.216303059754354,1020,1016.4613580938246,517,4.261478536433184,1.006
516,6.418955908228448,1020,1016.4713845974363,517,4.237634059727325,1.007
515,6.446311728985911,1020,1016.4814072955488,516,4.190505567960481,1.008
516,6.2859601127118765,1020,1016.4914261349978,515,4.121638180517696,1.009
517,6.110808671812862,1020,1016.5014410627045,515,4.033987046628532,1.01
513,6.241159041346067,1020,1016.5114520256757,515,3.931797868223965,1.011
510,6.638361969005532,1020,1016.5214589710049,515,3.8203759463910596,1.012
504,7.127618027154901,1020,1016.5314618458723,514,3.705771035018038,1.013
501,7.451218250686289,1020,1016.5414605975446,514,3.5944092198730218,1.014
499,7.854151256365006,1020,1016.5514551733766,514,3.492704492370747,1.015
500,8.212503136292316,1020,1016.5614455208108,514,3.4066817154994604,1.016
501,8.304801875504504,1020,1016.5714315873785,513,3.3416389234753976,1.017
510,8.326374170903193,1020,1016.5814133206997,514,3.301870859266322,1.018
510,8.808242797067402,1020,1016.5913906684833,514,3.29046811264892,1.019
510,9.871955204318077,1020,1016.601363578528,514,3.3091977013554645,1.02
521,11.091922189494056,1020,1016.6113319987226,514,3.3584624224721207,1.021
531,12.037278251134612,1020,1016.6212958770465,515,3.4373292397229878,1.022
528,12.396011414661952,1020,1016.63125516157,515,3.5436122326512742,1.023
521,12.521721000372077,1020,1016.6412098004556,515,3.673993516248279,1.024
522,12.808208133226232,1020,1016.6511597419569,515,3.8241664975466843,1.025
521,13.139837496874623,1020,1016.6611049344199,515,3.988989905781164,1.026
516,13.453159974622658,1020,1016.6710453262832,515,4.162646915469612,1.027
510,13.688739169891745,1020,1016.6809808660784,515,4.338809352343878,1.028
500,13.907786615677193,1020,1016.69091150243,515,4.510810938162312,1.029
488,14.11870750142269,1020,1016.7008371840557,515,4.671835147083482,1.03
486,14.320223515822683,1020,1016.710757859767,516,4.815122378280106,1.031
495,14.489672529574145,1020,1016.7206734784698,515,4.934198121185135,1.032
504,14.549536312314082,1020,1016.7305839891645,516,5.023119505107383,1.033
513,14.652004693471577,1020,1016.7404893409464,516,5.076733153525968,1.034
523,14.706740308461464,1020,1016.7503894830068,516,5.0909332466110095,1.035
536,14.665887461934721,1020,1016.7602843646334,516,5.062905513976055,1.036
535,14.653805985212616,1020,1016.7701739352107,516,4.991340994126611,1.037
531,14.815895108866302,1020,1016.7800581442199,516,4.876602982258009,1.038
535,15.014343604461384,1020,1016.7899369412394,516,4.720831340293221,1.039
531,15.077248871340592,1020,1016.7998102759452,516,4.5279700492311665,1.04
522,14.979919504988715,1020,1016.8096780981114,516,4.303706811104369,1.041
502,14.744332397672986,1020,1016.8195403576104,515,4.05531814317213,1.042
485,14.548298788084267,1020,1016.8293970044141,515,3.7914199013685552,1.043
454,14.51048249735675,1020,1016.8392479885932,515,3.52163084278458,1.044
449,14.564136248508538,1020,1016.8490932603174,514,3.256164389546216,1.045
458,14.653793274357193,1020,1016.8589327698567,514,3.0053702542699265,1.046
491,14.574341348291583,1020,1016.8687664675809,514,2.7792528568510106,1.047
516,14.262007260654103,1020,1016.8785943039612,513,2.586997492317816,1.048
527,13.985972945922384,1020,1016.88841622957,512,2.4365377908360495,1.049
528,13.815120538871263,1020,1016.8982321950803,512,2.334198560720133,1.05
528,13.675884195130932,1020,1016.9080421512667,512,2.284445147956903,1.051
525,13.63362854746583,1020,1016.9178460490056,512,2.2897622201245134,1.052
523,13.561045298714697,1020,1016.9276438392752,512,2.35067124594157,1.053
522,13.935121168387354,1020,1016.937435473157,514,2.4658789206474805,1.054
523,14.106151253355828,1020,1016.9472209018352,514,2.6325313608916385,1.055
520,13.893274212210596,1020,1016.9570000765973,515,2.8465343564940433,1.056
519,13.518971991029176,1020,1016.9667729488353,516,3.1028918225986293,1.057
520,13.282609964543107,1020,1016.9765394700459,516,3.3960153850028156,1.058
519,13.294608862353574,1020,1016.9862995918298,515,3.719968108748354,1.059
515,13.45500589450873,1020,1016.9960532658934,515,4.068622754910905,1.06
513,13.493689792222606,1020,1017.0058004440475,516,4.435735430577026,1.061
502,13.155443910480711,1020,1017.0155410782095,515,4.814953837462153,1.062
495,12.73453193048673,1020,1017.025275120402,515,5.199791963076213,1.063
498,12.338411033002286,1020,1017.0350025227534,515,5.583609254378445,1.064
505,11.96618528867591,1020,1017.0447232374985,515,5.959632105344499,1.065
512,11.54103204175877,1020,1017.0544372169791,516,6.321048229757898,1.066
512,11.41038700680086,1020,1017.0641444136443,517,6.6611902006706,1.067
513,11.623518701515902,1020,1017.0738447800506,518,6.973805392891302,1.068
517,11.580415579373293,1020,1017.0835382688625,519,7.253390044197431,1.069
519,10.858154202458643,1020,1017.0932248328519,519,7.4955498884656855,1.07
518,9.71232084442776,1020,1017.1029044248999,519,7.697342089237623,1.071
516,8.834326066471943,1020,1017.1125769979958,520,7.857553524179085,1.072
515,8.631836118676132,1020,1017.1222425052388,520,7.976876914287629,1.073
511,8.638671080202682,1020,1017.131900899837,520,8.057956485562709,1.074
508,8.478632146312487,1020,1017.1415521351081,520,8.105287671768131,1.075
504,8.293162926428215,1020,1017.1511961644795,519,8.12497045276107,1.076
513,8.087169578524854,1020,1017.1608329414887,519,8.124332066057987,1.077
531,7.930668087963469,1020,1017.1704624197839,518,8.11144954688024,1.078
530,7.859022927446265,1020,1017.1800845531245,518,8.094613012870164,1.079
523,7.730957594550545,1020,1017.1896992953808,519,8.081774802428223,1.08
516,7.535245141266704,1020,1017.1993066005344,519,8.080027299838108,1.081
507,7.393799245230877,1020,1017.2089064226794,518,8.09514566506142,1.082
504,7.276158325548088,1020,1017.2184987160222,518,8.13122405994663,1.083
499,7.118917811737123,1020,1017.2280834348812,518,8.190427024873395,1.084
495,6.982311776294857,1020,1017.2376605336881,519,8.272870134008159,1.085
500,7.00273080038553,1020,1017.247229966987,519,8.37663412013629,1.086
506,7.036678323256944,1020,1017.2567916894353,519,8.497904965182412,1.087
512,6.852203726586974,1020,1017.2663456558047,520,8.631221685031424,1.088
516,6.546899502928668,1020,1017.27589182098,520,8.769805788487028,1.089
511,6.2638943443051405,1020,1017.2854301399609,520,8.905942177349724,1.09
505,6.117510965889788,1020,1017.2949605678621,520,9.03138042333964,1.091
493,6.116848600968319,1020,1017.3044830599121,521,9.13772745822713,1.092
486,6.130531374494426,1020,1017.3139975714545,521,9.216806847053778,1.093
492,6.137464150928101,1020,1017.323504057949,521,9.260965472168005,1.094
505,6.061593256916945,1020,1017.3330024749707,520,9.263316175711454,1.095
516,5.94722787893617,1020,1017.3424927782112,520,9.217914925600759,1.096
520,5.84889066675273,1020,1017.3519749234788,519,9.119881614617327,1.097
518,5.790336165460451,1020,1017.3614488666989,519,8.96548142933615,1.098
518,5.782424184775452,1020,1017.3709145639135,519,8.75218623574886,1.099
520,5.767646705746758,1020,1017.3803719712822,519,8.478732076433658,1.1
517,5.764773336885294,1020,1017.3898210450809,519,8.145181215906966,1.101
518,5.658993803759976,1020,1017.3992617417032,518,7.75298801627811,1.102
519,5.631885595100772,1020,1017.4086940176605,518,7.305059837818443,1.103
516,5.326241016750337,1020,1017.4181178295823,518,6.805798131004998,1.104
513,5.069801235360427,1020,1017.4275331342161,518,6.261100606534609,1.105
513,4.970282024816053,1020,1017.4369398884274,518,5.678302961544136,1.106
513,4.986372048320208,1020,1017.4463380492012,517,5.066039695478484,1.107
512,4.949583832079532,1020,1017.4557275736406,516,4.434009982011225,1.108
512,4.8385301253624196,1020,1017.4651084189686,515,3.79264652645667,1.109
508,4.7905953628321996,1020,1017.474480542528,514,3.1527004383239694,1.11
510,4.742385621126715,1020,1017.4838439017816,513,2.524769675345732,1.111
511,4.810118556207898,1020,1017.4931984543131,512,1.9188094823362112,1.112
510,5.003471766651331,1020,1017.5025441578267,511,1.3436688825151262,1.113
512,5.044019093386204,1020,1017.511880970147,510,0.8066971574705292,1.114
512,5.089218616994444,1020,1017.5212088492187,510,0.3134582044018443,1.115
512,5.441284288243197,1019,1017.5305277531081,510,-0.1324211216334416,1.116
511,5.65146088228786,1020,1017.5398376400033,510,-0.5292588137330724,1.117
512,5.381127689006483,1020,1017.5491384682138,510,-0.8771896659566709,1.118
512,5.201490015694979,1020,1017.5584301961709,510,-1.17792527596901,1.119
512,5.1470245445460145,1020,1017.5677127824284,510,-1.4344372461790802,1.12
513,5.211417901313891,1020,1017.5769861856626,510,-1.6506043175153908,1.121
512,5.143667116654139,1020,1017.5862503646717,510,-1.8308643027278575,1.122
510,4.99542415970289,1020,1017.5955052783775,510,-1.9799069964679403,1.123
513,5.030960714944312,1020,1017.6047508858242,510,-2.102435406708009,1.124
516,5.0801929488699615,1020,1017.6139871461795,509,-2.203010386764319,1.125
515,5.18883130633783,1020,1017.6232140187343,508,-2.285979129113981,1.126
512,5.477936065888331,1020,1017.6324314629036,508,-2.3554731523393566,1.127
508,5.718665165775743,1020,1017.6416394382262,508,-2.4154496755414625,1.128
506,5.770663909537365,1020,1017.6508379043651,508,-2.4697444968581537,1.129
505,5.7009907543744776,1020,1017.6600268211075,507,-2.5221050358414616,1.13
506,5.7187978988773285,1020,1017.6692061483657,507,-2.5761772134530916,1.131
510,5.735556776644827,1020,1017.6783758461759,507,-2.6354278007514433,1.132
513,5.797885995415276,1020,1017.6875358746998,508,-2.7029948049889585,1.133
520,5.942811741449386,1020,1017.6966861942248,508,-2.781472283725762,1.134
525,6.108429073447215,1020,1017.7058267651629,508,-2.8726505236477933,1.135
524,6.24752780495,1020,1017.7149575480527,508,-2.9772443459725504,1.136
526,6.524903203686752,1020,1017.7240785035583,509,-3.0946491630353012,1.137
515,6.98512065614765,1020,1017.7331895924704,509,-3.2227661159041108,1.138
504,7.455630678980703,1020,1017.7422907757064,509,-3.357934394936311,1.139
491,7.878313966496944,1020,1017.7513820143104,508,-3.4950001112762688,1.14
497,8.24382139020777,1020,1017.7604632694532,508,-3.6275367305689166,1.141
513,8.469851505973985,1020,1017.7695345024325,508,-3.748214102200377,1.142
527,8.512318292512736,1020,1017.7785956746737,507,-3.8492948854060103,1.143
525,8.593316740890806,1020,1017.7876467477294,507,-3.9232211929699807,1.144
520,9.012744494777884,1020,1017.7966876832791,506,-3.9632415442827402,1.145
513,9.867941186068608,1020,1017.8057184431307,506,-3.9640194736622014,1.146
509,10.726500826829932,1020,1017.8147389892199,505,-3.922161601816569,1.147
501,11.118947505848304,1020,1017.8237492836108,505,-3.8366058865192922,1.148
501,11.14175104250421,1020,1017.8327492884961,505,-3.7088208866419907,1.149
496,11.628858141119565,1020,1017.8417389661969,506,-3.542784289864123,1.15
490,12.045349377585605,1020,1017.8507182791637,507,-3.3447324676049437,1.151
492,12.1484103366581,1020,1017.859687189976,507,-3.122699271226709,1.152
500,12.192592232224769,1020,1017.8686456613418,508,-2.8858871822651126,1.153
510,12.197743676607319,1020,1017.8775936560992,509,-2.6439335025646518,1.154
508,12.2812776808592,1020,1017.886531137216,510,-2.406146799623385,1.155
509,12.459096195155254,1020,1017.8954580677896,511,-2.1807936942142003,1.156
515,12.56030673740739,1020,1017.9043744110468,511,-1.9745122457563546,1.157
519,12.714713026462531,1020,1017.9132801303443,511,-1.7919145305788595,1.158
519,12.898789785163814,1020,1017.9221751891695,511,-1.6354180247898402,1.159
522,12.86329494756803,1020,1017.9310595511396,510,-1.5053160062061983,1.16
527,12.628831086250056,1020,1017.9399331800026,509,-1.4000658162840645,1.161
535,12.517062619112728,1020,1017.9487960396366,508,-1.3167452666391928,1.162
537,12.463590280421046,1020,1017.9576480940502,508,-1.251606415659503,1.163
532,12.616383239209362,1020,1017.9664893073839,508,-1.2006462420525257,1.164
530,12.605215397491376,1020,1017.975319643909,508,-1.160116810425451,1.165
522,12.399373546757603,1020,1017.9841390680278,508,-1.126911381952107,1.166
515,12.242290208520364,1020,1017.9929475442742,508,-1.098783582270125,1.167
505,12.320139073885565,1020,1018.0017450373135,509,-1.0743805726590983,1.168
490,12.164671537215183,1020,1018.0105315119437,510,-1.0530957561573662,1.169
466,11.883007846650845,1020,1018.0193069330941,510,-1.0347695620388402,1.17
468,11.730449390409186,1020,1018.028071265826,510,-1.0192851871583406,1.171
489,11.712762344729285,1020,1018.0368244753331,511,-1.0061171313706065,1.172
515,11.703432192339429,1020,1018.045566526941,511,-0.9938934156502323,1.173
534,11.528743774674748,1020,1018.0542973861084,511,-0.9800287414436589,1.174
536,11.3403560799921,1020,1018.0630170184259,511,-0.9604766962795316,1.175
517,11.077434918261991,1020,1018.0717253896164,510,-0.9296352884815493,1.176
509,10.672160597331448,1020,1018.0804224655352,511,-0.8804233326752186,1.177
505,10.316585288446898,1020,1018.0891082121701,511,-0.8045281180889892,1.178
501,10.129309876801111,1020,1018.0977825956419,510,-0.692809285892939,1.179
494,10.15403348828444,1020,1018.1064455822042,510,-0.5358302059779159,1.18
500,10.208768216729917,1020,1018.1150971382439,510,-0.32447634443955753,1.181
501,10.297054731812418,1020,1018.1237372302807,510,-0.05061145554593351,1.182
501,10.333858264664311,1020,1018.1323658249673,510,0.2922812000188331,1.183
504,10.243534271863568,1020,1018.1409828890903,510,0.7085233777125901,1.184
512,10.121310485432973,1020,1018.1495883895698,511,1.1997757447058153,1.185
519,9.929542889352165,1020,1018.1581822934602,511,1.7647131960552664,1.186
522,9.650177665632903,1020,1018.1667645679497,513,2.398858372601097,1.187
524,9.233443536853628,1020,1018.1753351803607,514,3.0945728250537194,1.188
519,8.757749198600767,1020,1018.1838940981494,515,3.8411885210284193,1.189
521,8.373572182288026,1020,1018.1924412889067,516,4.625249379580614,1.19
519,8.041006877960342,1020,1018.2009767203587,517,5.430825611274337,1.191
519,7.828131723827783,1020,1018.209500360366,519,6.239863352009784,1.192
519,7.77693034104807,1020,1018.2180121769244,519,7.032537625698337,1.193
513,7.70399625553253,1020,1018.2265121381648,519,7.7875874353002095,1.194
512,7.293352324243567,1020,1018.235000212353,519,8.482627052959915,1.195
514,6.443542000060927,1020,1018.2434763678903,520,9.094444775126291,1.196
515,5.580194461654346,1020,1018.2519405733128,520,9.599315174151839,1.197
513,5.207340619394623,1020,1018.2603927972923,519,9.973359893036323,1.198
514,5.143403060786784,1020,1018.2688330086353,519,10.192994567718056,1.199
514,4.699392088443134,1020,1018.2772611762834,518,10.235495471429275,1.2
514,4.245171654670126,1020,1018.2856772693149,518,10.079707599670193,1.201
511,4.129498938709216,1020,1018.2940812569435,518,9.706894550075951,1.202
512,4.116868353604521,1020,1018.3024731085187,519,9.101700200926203,1.203
510,4.0889903668277965,1020,1018.3108527935259,520,8.253156557284692,1.204
508,3.932066415982502,1020,1018.3192202815866,521,7.155637951035368,1.205
506,3.665669169820512,1020,1018.3275755424582,521,5.809637744904002,1.206
507,3.4662353865733833,1020,1018.3359185460353,520,4.222238179748569,1.207
510,3.300040626487881,1020,1018.3442492623484,518,2.4071621518134725,1.208
511,3.21832506486062,1020,1018.3525676615644,515,0.3843372969067264,1.209
512,3.252241771175181,1020,1018.3608737139873,510,-1.821037975426904,1.21
511,3.504697554458673,1020,1018.3691673900573,505,-4.179869940517225,1.211
510,3.638180471398909,1020,1018.3774486603513,502,-6.6608679512839855,1.212
511,3.7225697437210736,1020,1018.3857174955822,499,-9.232402581754405,1.213
511,3.817047255341618,1020,1018.3939738665993,496,-11.864341057856125,1.214
511,4.092024468586087,1020,1018.4022177443887,493,-14.529683593905453,1.215
512,4.4656364347149715,1020,1018.4104491000733,490,-17.205849436922293,1.216
512,4.668722623134875,1020,1018.4186679049124,487,-19.875498603732364,1.217
512,4.638784933316828,1020,1018.4268741303027,486,-22.526820015143013,1.218
512,4.709466404828228,1020,1018.4350677477788,485,-25.15326627149203,1.219
514,5.3140901469376045,1020,1018.4432487290125,485,-27.752765674028918,1.22
513,6.08533574592401,1020,1018.451417045813,481,-30.326486187371838,1.221
511,6.620624687847472,1020,1018.4595726701269,477,-32.87725581849014,1.222
512,7.167397032435173,1020,1018.4677155740393,473,-35.40775620302613,1.223
510,8.040228420334229,1020,1018.4758457297727,471,-37.91860695085943,1.224
510,8.883866793021177,1020,1018.4839631096871,470,-40.406459063769795,1.225
514,9.443127828310079,1020,1018.4920676862808,470,-42.862224401994766,1.226
513,9.54015327233889,1020,1018.5001594321894,469,-45.26958250351204,1.227
515,9.685673144519887,1020,1018.5082383201857,468,-47.60391546980754,1.228
513,9.818793662911666,1020,1018.5163043231796,466,-49.83181447736819,1.229
514,9.769586287718688,1020,1018.5243574142191,463,-51.9112715247769,1.23
511,9.75102515922103,1020,1018.5323975664892,461,-53.79261860174003,1.231
512,9.729015542573519,1020,1018.540424753312,458,-55.42021067343059,1.232
515,9.808360001210785,1020,1018.5484389481471,455,-56.73477816194495,1.233
519,10.120295101981958,1020,1018.5564401245915,451,-57.676307961225106,1.234
522,10.473566509935925,1020,1018.5644282563808,449,-58.1872574236417,1.235
524,10.941376642195461,1020,1018.5724033173883,449,-58.215870916714366,1.236
523,11.76879162576134,1020,1018.5803652816257,449,-57.7193596179234,1.237
526,12.476068647157726,1020,1018.5883141232434,452,-56.666723119508426,1.238
529,12.998167123910465,1020,1018.59624981653,454,-55.04102999256085,1.239
536,13.40973365035799,1020,1018.6041723359131,455,-52.84102311274672,1.24
525,13.587340880962802,1020,1018.6120816559587,457,-50.08196451351732,1.241
513,13.63511143241161,1020,1018.619977751371,461,-46.795679512781156,1.242
497,13.938685938821573,1020,1018.6278605969927,466,-43.02980279583783,1.243
476,14.355284572967884,1020,1018.6357301678053,471,-38.8462734560205,1.244
469,14.64644987183001,1020,1018.6435864389281,477,-34.31917072124933,1.245
478,14.7256079284251,1020,1018.6514293856188,483,-29.532021332740523,1.246
479,14.833945271597536,1020,1018.6592589832734,488,-24.574736676797986,1.247
462,14.935598931018879,1020,1018.6670752074264,493,-19.540348938894848,1.248
466,15.128442652427642,1020,1018.6748780337506,497,-14.521710661352142,1.249
477,15.308686185654167,1020,1018.6826674380576,502,-9.60830480667792,1.25
504,15.574125353430844,1020,1018.6904433962976,506,-4.883289006836422,1.251
516,15.959790329472337,1020,1018.6982058845596,510,-0.4208743419234868,1.252
518,16.20629573821056,1020,1018.7059548790711,515,3.715880318406573,1.253
508,16.297736571132813,1020,1018.7136903561981,519,7.476791509940878,1.254
506,16.287316238889332,1020,1018.7214122924446,524,10.825735281816108,1.255
515,16.305057216460018,1020,1018.7291206644535,527,13.741245616335705,1.256
521,16.387824602019236,1020,1018.7368154490058,530,16.216495261017734,1.257
529,16.460649469345817,1020,1018.7444966230208,531,18.258650452562836,1.258
531,16.455278329156762,1020,1018.752164163557,532,19.887623797430024,1.259
536,16.38218006996812,1020,1018.759818047812,533,21.13428847712305,1.26
555,16.169425969965765,1020,1018.7674582531225,532,22.038256116748872,1.261
551,15.990172287321746,1020,1018.7750847569636,532,22.645354208213476,1.262
540,15.771337099971642,1020,1018.7826975369493,531,23.004962432004074,1.263
536,15.625777764073865,1020,1018.790296570833,531,23.16737730466446,1.264
523,15.483561315387975,1020,1018.7978818365071,531,23.181369247793064,1.265
510,15.211097082892385,1020,1018.8054533120034,531,23.092075642837166,1.266
496,15.129838252037276,1020,1018.8130109754924,531,22.939340708463643,1.267
492,15.30957252902894,1020,1018.8205548052841,531,22.756572818397814,1.268
497,15.291669774683452,1020,1018.8280847798272,531,22.570146685710125,1.269
509,14.800071899052714,1020,1018.835600877709,532,22.399334854894967,1.27
507,14.46391449267337,1020,1018.8431030776563,533,22.256712353371107,1.271
507,14.519135599652508,1020,1018.8505913585353,535,22.148942718821313,1.272
503,14.408657785355848,1020,1018.8580656993507,535,22.077826947993586,1.273
502,13.727065439215188,1020,1018.8655260792465,535,22.04148403808576,1.274
498,12.921583458581738,1020,1018.8729724775052,535,22.035535736694122,1.275
492,12.37748105889109,1020,1018.8804048735486,535,22.054187582346202,1.276
499,12.358534875639927,1020,1018.8878232469377,534,22.091128174728976,1.277
505,12.231746538798534,1020,1018.8952275773721,533,22.140202858323207,1.278
511,12.181379401090554,1020,1018.9026178446896,533,22.195851592655043,1.279
516,12.282452863389949,1020,1018.9099940288673,533,22.25332945591552,1.28
518,12.38408466965051,1020,1018.9173561100209,533,22.30874895475944,1.281
517,12.431697110732625,1020,1018.9247040684048,532,22.35899571560131,1.282
518,12.314339515924258,1020,1018.9320378844126,531,22.40157501852181,1.283
517,12.00322307447076,1020,1018.9393575385765,531,22.43444715978957,1.284
515,11.629286851606704,1020,1018.946663011567,531,22.45590358001524,1.285
517,11.179139662356087,1020,1018.953954284193,532,22.46452124536953,1.286
516,10.34750789174439,1020,1018.9612313374008,533,22.459210645491016,1.287
521,9.615816717606725,1020,1018.9684941522754,533,22.43934729618486,1.288
526,9.066327642552869,1020,1018.9757427100398,534,22.40495381822263,1.289
525,8.627506875695008,1020,1018.9829769920551,535,22.356884347989716,1.29
525,8.441072106925644,1020,1018.9901969798215,535,22.29695757032031,1.291
525,8.371318979799565,1020,1018.9974026549766,535,22.227989702037238,1.292
521,8.080080178128961,1020,1019.0045939992959,534,22.15369406098988,1.293
504,7.6922036826920195,1020,1019.0117709946925,533,22.07843747468224,1.294
489,7.4279582157918425,1020,1019.0189336232173,532,22.00687116037915,1.295
479,7.362341270968604,1020,1019.0260818670594,531,21.943478643856462,1.296
487,7.283259678009066,1020,1019.0332157085453,531,21.89210006613413,1.297
500,7.167530547440127,1020,1019.0403351301401,531,21.855497480705523,1.298
508,7.023340193759018,1020,1019.047440114446,531,21.8350193237296,1.299
508,6.891570135863559,1020,1019.054530644203,531,21.8304068859182,1.3
506,6.661356711013184,1020,1019.0616067022887,532,21.839765360390984,1.301
513,6.35745010041741,1020,1019.0686682717172,532,21.85970050210109,1.302
516,6.161159909324922,1020,1019.0757153356403,532,21.885601839429405,1.303
516,6.044251615291036,1020,1019.0827478773463,533,21.91203680563752,1.304
520,6.3078433576033675,1020,1019.0897658802601,534,21.93320836958534,1.305
519,6.6712024196199255,1020,1019.0967693279445,534,21.943422435124287,1.306
515,6.815342432213316,1020,1019.1037582040999,534,21.937511580269394,1.307
514,6.808782999588554,1020,1019.1107324925647,534,21.91116990510657,1.308
512,6.733274125185307,1020,1019.1176921773144,533,21.861169409014938,1.309
513,6.697770626243911,1020,1019.1246372424616,532,21.785448493894968,1.31
513,6.720165334235088,1020,1019.1315676722556,532,21.68308359952531,1.311
513,6.716502761711552,1020,1019.1384834510827,531,21.55417133024006,1.312
512,6.6747094733267405,1020,1019.145384563466,531,21.39965762507038,1.313
510,6.521828828437601,1020,1019.152270994065,531,21.22115163824218,1.314
513,6.311691399514357,1020,1019.1591427276758,531,21.02075623233444,1.315
511,6.111573215042335,1020,1019.1659997492317,531,20.800936757210124,1.316
513,5.964594814758643,1020,1019.1728420438027,531,20.564437935153855,1.317
514,5.878067190003898,1020,1019.1796695965955,531,20.31424773283662,1.318
509,5.7965178290227355,1020,1019.1864823929537,531,20.053598695577822,1.319
510,5.748041747242717,1020,1019.1932804183572,530,19.78599203993392,1.32
513,5.4256496196822805,1020,1019.2000636584222,530,19.515227773903437,1.321
513,4.841810510100552,1020,1019.2068320989016,530,19.24542428211756,1.322
514,4.470882989193456,1020,1019.2135857256845,530,18.98101168722697,1.323
517,4.415634933492438,1020,1019.2203245247962,530,18.726684152526715,1.324
515,4.418249578929639,1020,1019.2270484823972,530,18.487297982814372,1.325
518,4.460950814224357,1020,1019.2337575847844,530,18.267706522383993,1.326
516,4.561207687481674,1020,1019.24045181839,529,18.072530444389823,1.327
510,4.6732105156390045,1020,1019.2471311697816,528,17.90587281549944,1.328
497,4.76536276918702,1020,1019.2537956256613,528,17.771000489187216,1.329
490,4.946900019373981,1020,1019.2604451728669,528,17.670023748126066,1.33
500,5.186947463340555,1020,1019.2670797983717,527,17.603611737743485,1.331
507,5.457664104887609,1020,1019.273699489285,527,17.57078124805573,1.332
511,5.604775640004783,1020,1019.2803042328521,527,17.568791638163354,1.333
508,5.7238499944933645,1020,1019.2868940164533,527,17.593169870954707,1.334
509,5.796140728786792,1020,1019.2934688276031,528,17.637877114892166,1.335
506,5.884183599336798,1020,1019.3000286539512,528,17.69561347363295,1.336
511,6.331481029324985,1020,1019.306573483282,528,17.758242648598923,1.337
513,6.975373005477129,1020,1019.3131033035141,528,17.81730625558007,1.338
517,7.730031063891902,1020,1019.3196181027009,529,17.8645891811061,1.339
515,8.556117640060496,1020,1019.3261178690299,529,17.892692294033914,1.34
519,9.177503253355956,1020,1019.3326025908226,529,17.89556651625292,1.341
521,9.604013758915093,1020,1019.3390722565355,530,17.868963295313424,1.342
518,9.730669082969232,1020,1019.3455268547586,529,17.810761831651828,1.343
515,9.72044576645532,1020,1019.3519663742168,529,17.721143112377298,1.344
518,9.82931759388365,1020,1019.358390803769,529,17.602594013032984,1.345
513,10.14319062158111,1020,1019.3648001324082,529,17.45973978595261,1.346
506,10.535428211693416,1020,1019.3711943492608,528,17.299018397063044,1.347
503,10.90821053264333,1020,1019.3775734435876,527,17.128224398972193,1.348
508,11.2533075453689,1020,1019.3839374047831,527,16.955962538776404,1.349
515,11.49347317576721,1020,1019.390286222375,526,16.791060245683408,1.35
520,11.552511458665114,1020,1019.396619886024,526,16.641991199533784,1.351
518,11.458141484444864,1020,1019.4029383855237,526,16.516358353745147,1.352
520,11.372690018996494,1020,1019.409241710801,526,16.420474938167807,1.353
524,11.385909790662526,1020,1019.415529851916,526,16.359068047180884,1.354
531,11.172660561265403,1020,1019.4218027990617,527,16.3351137488186,1.355
531,10.76067143906411,1020,1019.4280605425636,527,16.349797515920674,1.356
521,10.548283128508317,1020,1019.4343030728794,527,16.40258125332564,1.357
518,10.473549922703507,1020,1019.4405303805995,528,16.491349971217566,1.358
514,10.48560060863407,1020,1019.4467424564466,528,16.61260803784847,1.359
502,10.473689850485501,1020,1019.4529392912752,528,16.761696750803313,1.36
485,10.42783569702944,1020,1019.459120876072,528,16.93301113429177,1.361
474,10.32975787862737,1020,1019.4652872019554,527,17.120203431737455,1.362
471,10.32657426900594,1020,1019.4714382601759,528,17.31637160548427,1.363
466,10.326149513820441,1020,1019.4775740421159,528,17.514240345877642,1.364
477,10.266313216171648,1020,1019.4836945392893,527,17.706347550740094,1.365
487,10.187449792788353,1020,1019.4897997433417,527,17.885250698997073,1.366
502,10.064557729552673,1020,1019.4958896460494,528,18.0437653392335,1.367
511,9.883216080407243,1020,1019.5019642393195,528,18.175241625908278,1.368
518,9.7851909840767,1020,1019.50802351519,528,18.27387447093164,1.369
527,9.758716127372113,1020,1019.5140674658301,529,18.335030453334355,1.37
532,9.725922776794324,1020,1019.5200960835391,530,18.355563098998466,1.371
530,9.789717385146737,1020,1019.5261093607461,530,18.33407984669036,1.372
531,9.80359858718811,1020,1019.5321072900107,530,18.271121066054874,1.373
528,9.6678158977575,1020,1019.5380898640225,530,18.169215795203176,1.374
518,9.71219057996454,1020,1019.544057075601,530,18.03279056761862,1.375
513,9.875778684772675,1020,1019.5500089176968,529,17.867924751825562,1.376
512,9.951073505487841,1020,1019.55594538339,528,17.681965438590815,1.377
515,9.982718921785565,1020,1019.5618664658907,527,17.483034291272173,1.378
517,9.894292436774284,1020,1019.5677721585373,527,17.279474606870675,1.379
514,9.632535342569136,1020,1019.5736624547978,526,17.079295677735484,1.38
515,9.441741282743939,1020,1019.5795373482696,526,16.889671595830915,1.381
514,9.571745306076826,1020,1019.5853968326786,526,16.716543562752065,1.382
511,9.906245536225622,1020,1019.5912409018805,526,16.56436067602623,1.383
511,10.279733004763168,1020,1019.5970695498603,526,16.43597650702826,1.384
512,10.5412171739831,1020,1019.6028827707318,526,16.332699998199477,1.385
514,10.499638126226014,1020,1019.6086805587379,527,16.254481345898267,1.386
512,10.088152392601963,1020,1019.6144629082496,527,16.20019806042814,1.387
512,9.617390457578846,1020,1019.620229813766,528,16.167994708611356,1.388
515,9.031728558879024,1020,1019.6259812699141,528,16.155623771828346,1.389
514,8.526751776244996,1020,1019.631717271449,528,16.160736263539214,1.39
514,8.602066559400075,1020,1019.6374378132538,528,16.181079709528838,1.391
513,9.198827052419313,1020,1019.6431428903389,528,16.214576600051164,1.392
513,10.11015823663888,1020,1019.6488324978428,527,16.25927603250199,1.393
511,10.962029081975386,1020,1019.6545066310312,527,16.31319212968539,1.394
509,11.476347444519472,1020,1019.6601652852962,526,16.374062120417214,1.395
508,11.52655952491349,1020,1019.665808456157,526,16.439071925900755,1.396
507,11.295761536098684,1020,1019.6714361392594,525,16.50460533688363,1.397
512,11.721121557316476,1020,1019.6770483303761,525,16.566072976834047,1.398
518,12.864430599935138,1020,1019.6826450254056,525,16.617868776377833,1.399
525,14.527060505666105,1020,1019.688226220372,526,16.653485046049585,1.4
526,15.725091387986453,1020,1019.693791911426,527,16.66579423676886,1.401
521,16.089374717265716,1020,1019.6993420948452,527,16.647479971942104,1.402
518,16.176492521711413,1020,1019.7048767670326,527,16.591577101935215,1.403
512,16.244411768016576,1020,1019.7103959245173,528,16.492064514564504,1.404
500,16.239963505098075,1020,1019.7158995639543,528,16.344446506176784,1.405
482,16.31325505544575,1020,1019.7213876821239,528,16.14625794949183,1.406
483,16.51256881578411,1020,1019.7268602759319,528,15.897434668247666,1.407
482,16.649789239331707,1020,1019.7323173424085,527,15.600503118265749,1.408
493,16.99773700239851,1020,1019.7377588787086,527,15.26056159416863,1.409
505,17.344649648898102,1020,1019.7431848821127,526,14.885046412434288,1.41
514,17.680941944406324,1020,1019.7485953500252,525,14.48329817397414,1.411
520,17.98858041531619,1020,1019.7539902799747,524,14.065962962230211,1.412
519,18.195591764920717,1020,1019.7593696696142,524,13.644279214079779,1.413
526,18.383846284708486,1020,1019.7647335167202,523,13.22931136770881,1.414
546,18.587483958543295,1020,1019.7700818191933,522,12.83119561722125,1.415
560,18.7930528489261,1020,1019.7754145750572,521,12.458461797559556,1.416
563,19.01136379812533,1020,1019.7807317824595,521,12.11748912992736,1.417
553,19.220366924242672,1020,1019.786033439671,521,11.812141818516587,1.418
543,19.546054666895557,1020,1019.7913195450851,521,11.543613146693513,1.419
528,19.881675488601438,1020,1019.7965900972185,521,11.310485641854758,1.42
500,20.19560866311449,1020,1019.8018450947103,521,11.108993444842982,1.421
467,20.44212481552723,1020,1019.8070845363214,522,10.933454150304463,1.422
433,20.466254246899968,1020,1019.8123084209343,522,10.776822731573038,1.423
408,20.511203700169304,1020,1019.817516747554,522,10.631310961602395,1.424
444,20.53648571890298,1020,1019.8227095153077,522,10.489013299255374,1.425
489,20.376917456318523,1020,1019.8278867234433,521,10.342484934768935,1.426
515,20.411824590523757,1020,1019.8330483713302,522,10.185228104863977,1.427
515,20.773551059722518,1020,1019.8381944584584,521,10.012056205590506,1.428
515,21.337859064727247,1020,1019.8433249844383,521,9.819319460466055,1.429
505,21.96323025091429,1020,1019.8484399490006,520,9.604990084110526,1.43
499,22.238348581835417,1020,1019.8535393519965,520,9.368618602990106,1.431
518,22.00431436329279,1020,1019.8586231933964,519,9.111185156272997,1.432
531,21.56650949986625,1020,1019.863691473291,518,8.834878638118886,1.433
531,21.20443305783447,1020,1019.8687441918911,518,8.542841179659193,1.434
530,20.916856379565832,1020,1019.8737813495273,517,8.238914755307079,1.435
527,20.987726090292483,1020,1019.8788029466497,517,7.927420057994634,1.436
524,21.082875097578146,1020,1019.8838089838275,517,7.612985590928752,1.437
523,21.09905903503046,1020,1019.8887994617501,518,7.300428760735967,1.438
523,21.141092831251726,1020,1019.8937743812251,519,6.994673420666331,1.439
522,21.022415548595575,1020,1019.8987337431789,519,6.700674005167539,1.44
523,20.492267954915942,1020,1019.9036775486564,518,6.423310113380401,1.441
523,19.597323378645683,1020,1019.9086057988205,518,6.1672204303102784,1.442
529,18.63714208083967,1020,1019.9135184949523,517,5.936560266455917,1.443
531,17.80536611765376,1020,1019.9184156384508,516,5.734687965986874,1.444
532,17.177712974383958,1020,1019.9232972308328,515,5.5638063291035955,1.445
529,16.830312518076937,1020,1019.9281632737321,515,5.424601588476167,1.446
519,16.663188876637452,1020,1019.9330137689,514,5.315931380398307,1.447
508,15.86260245953019,1020,1019.937848718204,514,5.234613149988608,1.448
505,14.319927965665308,1020,1019.9426681236284,514,5.175355962109268,1.449
506,12.332774813326997,1020,1019.9474719872735,515,5.130863468831891,1.45
496,11.034128150058992,1020,1019.9522603113562,515,5.092116288797782,1.451
483,10.658514614814083,1020,1019.95703309821,515,5.048821657851569,1.452
477,10.573483211666549,1020,1019.9617903502848,515,4.9900004885672935,1.453
478,10.457110506600909,1020,1019.9665320701455,516,4.904668951228713,1.454
485,10.389925570276509,1020,1019.971258260473,515,4.782563314293671,1.455
494,10.296939477487344,1020,1019.9759689240632,515,4.614852367475686,1.456
504,10.083031301939789,1020,1019.9806640638272,516,4.394780910715757,1.457
501,9.968443847610201,1020,1019.9853436827908,516,4.118190099571962,1.458
507,9.632269770500173,1020,1019.990007784094,516,3.783865881574649,1.459
519,9.383979987845844,1020,1019.9946563709916,515,3.393676721809007,1.46
519,9.207450440698471,1020,1019.9992894468517,515,2.9524778654651973,1.461
523,9.097761353193324,1020,1020.0039070151558,514,2.467780937736349,1.462
522,9.038196068546538,1020,1020.0085090795,512,1.9492119682891407,1.463
523,8.919116901413053,1020,1020.013095643594,511,1.4078046083283904,1.464
521,8.812926016840436,1020,1020.0176667112613,510,0.855194919620897,1.465
519,8.697200138865465,1020,1020.0222222864386,509,0.302795996352388,1.466
517,8.479994244632746,1020,1020.0267623731756,508,-0.23896768372284669,1.467
516,8.281696471081762,1020,1020.031286975635,508,-0.7612949207195692,1.468
514,7.955161033063022,1020,1020.0357960980915,507,-1.2574572552702346,1.469
516,7.58055919125435,1020,1020.0402897449322,507,-1.7230320154397816,1.47
514,7.208306561086305,1020,1020.0447679206557,508,-2.1559140883091965,1.471
513,6.895503927377961,1020,1020.0492306298718,508,-2.556128445185091,1.472
513,6.79649262390518,1020,1020.0536778773014,509,-2.9254893698569324,1.473
515,6.9804609014113925,1020,1020.0581096677764,509,-3.2671690565461198,1.474
512,7.179057577521444,1020,1020.0625260062392,508,-3.5852440708605577,1.475
514,8.189080394882483,1020,1020.0669268977422,508,-3.8842818907839405,1.476
514,10.032685897725964,1020,1020.0713123474479,508,-4.169013430439638,1.477
515,11.521731732511691,1020,1020.0756823606293,506,-4.444115293031127,1.478
515,12.290484520473477,1020,1020.0800369426694,505,-4.714101736617265,1.479
515,12.428520573092069,1020,1020.0843760990612,504,-4.983304621556828,1.48
513,11.928457822899189,1020,1020.0886998354074,504,-5.2559039253577025,1.481
513,12.372632016906508,1020,1020.0930081574195,504,-5.535965343790021,1.482
511,14.039585953460607,1020,1020.097301070917,503,-5.827445632117657,1.483
507,17.129145076949598,1020,1020.1015785818284,503,-6.134137734995034,1.484
504,20.708923058893028,1020,1020.105840696191,503,-6.4595426541808765,1.485
504,23.224310126161342,1020,1020.1100874201488,503,-6.806671213983008,1.486
504,24.425443769408755,1020,1020.1143187599537,504,-7.1777951977118875,1.487
508,24.203146056876427,1020,1020.1185347219644,504,-7.574181719373316,1.488
507,24.551961290055996,1020,1020.1227353126475,503,-7.99585398723694,1.489
508,25.12726904100193,1020,1020.1269205385776,503,-8.441423033980984,1.49
512,25.89785455199204,1020,1020.1310904064351,503,-8.90802811882131,1.491
510,26.950557578898263,1020,1020.1352449230078,502,-9.391410493207088,1.492
512,28.197907453846966,1020,1020.1393840951899,502,-9.886128656626349,1.493
511,29.20728390612933,1020,1020.1435079299816,500,-10.385904519306088,1.494
512,29.8700690935397,1020,1020.1476164344889,498,-10.884070202857306,1.495
511,30.133734391550064,1020,1020.1517096159237,497,-11.374067366156623,1.496
512,30.113945152457244,1020,1020.155787481604,497,-11.849939700454968,1.497
520,30.29931078407981,1020,1020.1598500389529,497,-12.306758989834957,1.498
525,30.617456194513693,1020,1020.1638972954989,497,-12.740936373772666,1.499
562,30.867768390555756,1020,1020.1679292588748,496,-13.150388768051585,1.5
615,30.91913636044301,1020,1020.1719459368171,496,-13.534549787394388,1.501
608,31.041493835444637,1020,1020.1759473371665,496,-13.894231480924589,1.502
579,31.281813632768298,1020,1020.179933467868,496,-14.231357484121503,1.503
545,31.55388381840133,1020,1020.1839043369708,496,-14.548600362146827,1.504
505,31.789822535595558,1020,1020.1878599526276,496,-14.848965374787117,1.505
467,32.0265985402353,1020,1020.191800323094,496,-15.135368284814433,1.506
415,32.17269104093382,1020,1020.1957254567279,496,-15.410255281548533,1.507
342,32.26292357230557,1020,1020.1996353619908,496,-15.675308480233252,1.508
322,32.2923558375861,1020,1020.2035300474464,496,-15.931271009805819,1.509
373,32.16167780021405,1020,1020.2074095217611,495,-16.17791174989813,1.51
436,32.04848825344464,1020,1020.211273793703,494,-16.41413206133625,1.511
507,32.02804968789971,1020,1020.2151228721422,493,-16.6381972846422,1.512
534,32.03638612736754,1020,1020.2189567660497,493,-16.84805785294332,1.513
548,32.0845637740807,1020,1020.2227754844976,492,-17.041712534727036,1.514
555,32.11624184877465,1020,1020.2265790366587,492,-17.217561881078456,1.515
568,32.13200573927059,1020,1020.2303674318056,492,-17.37470314697809,1.516
576,32.24908693596191,1020,1020.2341406793117,492,-17.513126986982467,1.517
563,32.29234230170386,1020,1020.2378987886506,491,-17.63378892943239,1.518
545,32.35021387295712,1020,1020.2416417693955,491,-17.738543137648687,1.519
526,32.39136795913542,1020,1020.2453696312193,492,-17.82994145332421,1.52
512,32.39948235519736,1020,1020.2490823838942,492,-17.910917357708644,1.521
501,32.417466063127456,1020,1020.2527800372917,493,-17.98439161032664,1.522
497,32.37789020013888,1020,1020.2564626013823,494,-18.052851066582928,1.523
499,32.22022144895,1020,1020.2601300862352,494,-18.117960594404327,1.524
510,32.034443572891014,1020,1020.2637825020184,494,-18.180267045586575,1.525
520,31.085728127031565,1020,1020.2674198589976,493,-18.23904284228782,1.526
527,29.008571488410553,1020,1020.2710421675363,493,-18.29229659451661,1.527
528,26.978467689662775,1020,1020.2746494380956,492,-18.33695356406054,1.528
528,25.569808459351645,1020,1020.2782416812337,492,-18.369184869811143,1.529
527,24.86896558554997,1020,1020.281818907606,491,-18.38484494182288,1.53
524,25.003956947040635,1020,1020.2853811279647,491,-18.379963794834346,1.531
522,24.393587399619783,1020,1020.2889283531586,491,-18.35123483654056,1.532
520,22.678485590839305,1020,1020.2924605941321,490,-18.29644008577799,1.533
515,19.396215862251573,1020,1020.2959778619253,490,-18.214762269362627,1.534
511,15.846844823198204,1020,1020.2994801676738,491,-18.106946607527643,1.535
507,13.533896112513277,1020,1020.3029675226082,492,-17.97529356715143,1.536
505,12.48248807902504,1020,1020.3064399380544,492,-17.823485723203767,1.537
508,12.638967225040801,1020,1020.3098974254325,493,-17.65627326526423,1.538
507,12.121645957185105,1020,1020.3133399962579,493,-17.479059283812706,1.539
510,11.456168876827341,1020,1020.3167676621401,494,-17.297435602562224,1.54
508,10.769306808118618,1020,1020.3201804347827,494,-17.116722815934835,1.541
511,9.955783636622145,1020,1020.323578325983,495,-16.941565252154934,1.542
510,8.721896160130864,1020,1020.3269613476315,495,-16.77562332975768,1.543
511,7.660499641407076,1020,1020.3303295117114,494,-16.62139250579327,1.544
515,6.991580975568112,1020,1020.3336828302988,494,-16.480160626568498,1.545
516,6.726293035133123,1020,1020.3370213155625,494,-16.352096427859525,1.546
513,6.790016207680811,1020,1020.3403449797637,494,-16.23644487992163,1.547
508,6.697948911357797,1020,1020.3436538352553,493,-16.131792910919362,1.548
505,6.530619099357537,1020,1020.3469478944821,493,-16.03636248759396,1.549
504,7.122497214302532,1020,1020.3502271699805,493,-15.948286881890704,1.55
508,8.34873661214471,1020,1020.3534916743776,493,-15.865830564686812,1.551
511,9.075779142202881,1020,1020.356741420391,493,-15.787523764527487,1.552
509,9.01663730568965,1020,1020.3599764208291,494,-15.71219816994536,1.553
507,9.13263949370645,1020,1020.3631966885899,495,-15.6389282207365,1.554
503,9.699068178115299,1020,1020.3664022366619,495,-15.566899972445741,1.555
503,10.646460982335993,1020,1020.3695930781228,496,-15.495243171981025,1.556
506,11.717572786044288,1020,1020.3727692261396,496,-15.422868887584151,1.557
511,12.514477940447305,1020,1020.3759306939688,496,-15.348353547237599,1.558
515,12.882946472691422,1020,1020.3790774949563,496,-15.26990136796098,1.559
529,12.89898045493791,1020,1020.3822096425354,496,-15.185402949680956,1.56
526,13.378807751991964,1020,1020.3853271502282,495,-15.092590826777185,1.561
519,14.051274492996477,1020,1020.3884300316444,495,-14.98927568104947,1.562
513,14.722554032691336,1020,1020.3915183004809,495,-14.873632294290093,1.563
504,15.23614138395486,1020,1020.3945919705229,495,-14.744494391911655,1.564
496,15.399365540918101,1020,1020.3976510556423,494,-14.601613424213669,1.565
492,15.299473068174912,1020,1020.4006955697984,495,-14.44583775811368,1.566
504,15.506550766477995,1020,1020.4037255270371,494,-14.279175056056628,1.567
511,15.890568438016675,1020,1020.4067409414909,494,-14.104711657903785,1.568
512,16.18671894300731,1020,1020.4097418273785,495,-13.926378561069129,1.569
513,16.607294406860174,1020,1020.4127281990053,496,-13.74857366586418,1.57
514,17.19896038296675,1020,1020.4157000707623,497,-13.575672699522741,1.571
516,17.67681627452692,1020,1020.4186574571263,498,-13.411482984014784,1.572
518,17.882412990846962,1020,1020.4216003726589,499,-13.258709904379495,1.573
553,17.97817466276608,1020,1020.4245288320063,499,-13.118511416913947,1.574
576,18.159628216437536,1020,1020.4274428498991,500,-12.990209527984133,1.575
553,18.404787648767996,1020,1020.4303424411521,499,-12.87121006084875,1.576
520,18.795038853001156,1020,1020.4332276206641,499,-12.757155631036385,1.577
490,19.16437717486863,1020,1020.4360984034173,497,-12.642305322501937,1.578
470,19.58482093915348,1020,1020.4389548044765,497,-12.520103063697867,1.579
450,20.033630889344902,1020,1020.4417968389885,497,-12.383870851860726,1.58
449,20.464123801166345,1020,1020.4446245221826,496,-12.227547500833252,1.581
463,20.82948638244021,1020,1020.447437869371,497,-12.046390194348982,1.582
488,21.107674067619943,1020,1020.4502368959481,497,-11.837563304878548,1.583
511,21.145038762428662,1020,1020.4530216173902,497,-11.600553680207222,1.584
539,21.483444175698825,1020,1020.4557920492551,497,-11.337370873726044,1.585
552,21.685139884750964,1020,1020.4585482071825,498,-11.052512305916004,1.586
554,22.16514092067053,1020,1020.4612901068926,499,-10.752695936020796,1.587
543,22.788211800431583,1020,1020.4640177641869,500,-10.446385769456977,1.588
526,23.29395073080539,1020,1020.4667311949471,500,-10.143156183323772,1.589
510,23.673956350381975,1020,1020.4694304151346,501,-9.852956444952307,1.59
494,23.700063359143087,1020,1020.4721154407902,502,-9.585344980123052,1.591
487,23.37577128264546,1020,1020.4747862880334,503,-9.348763949562167,1.592
492,23.453806844753903,1020,1020.4774429730637,502,-9.149918925960206,1.593
486,23.629534033703358,1020,1020.4800855121598,502,-8.993315775220251,1.594
479,23.79061871397886,1020,1020.4827139216792,502,-8.880988163018458,1.595
